# OpenSignals Text File Format. Version 1
# {"0C:43:14:24:7F:C7": {"position": 0, "device": "bitalino_rev", "device name": "0C:43:14:24:7F:C7", "device connection": "BTH0C:43:14:24:7F:C7", "sampling rate": 1000, "resolution": [4, 1, 1, 1, 1, 10], "firmware version": 1282, "comments": "", "keywords": "", "mode": 0, "sync interval": 2, "date": "2026-4-17", "time": "15:21:41.743", "channels": [1], "sensor": ["EMGBITREV"], "label": ["A1"], "column": ["nSeq", "I1", "I2", "O1", "O2", "A1"], "special": [{}], "digital IO": [0, 0, 1, 1]}}
# EndOfHeader
0	0	0	0	0	507	
1	0	0	0	0	511	
2	0	0	0	0	528	
3	0	0	0	0	524	
4	0	0	0	0	526	
5	0	0	0	0	526	
6	0	0	0	0	516	
7	0	0	0	0	512	
8	0	0	0	0	514	
9	0	0	0	0	513	
10	0	0	0	0	513	
11	0	0	0	0	516	
12	0	0	0	0	508	
13	0	0	0	0	513	
14	0	0	0	0	515	
15	0	0	0	0	515	
0	0	0	0	0	513	
1	0	0	0	0	511	
2	0	0	0	0	513	
3	0	0	0	0	512	
4	0	0	0	0	512	
5	0	0	0	0	508	
6	0	0	0	0	511	
7	0	0	0	0	506	
8	0	0	0	0	501	
9	0	0	0	0	517	
10	0	0	0	0	515	
11	0	0	0	0	513	
12	0	0	0	0	526	
13	0	0	0	0	519	
14	0	0	0	0	513	
15	0	0	0	0	511	
0	0	0	0	0	504	
1	0	0	0	0	514	
2	0	0	0	0	515	
3	0	0	0	0	515	
4	0	0	0	0	512	
5	0	0	0	0	520	
6	0	0	0	0	514	
7	0	0	0	0	510	
8	0	0	0	0	505	
9	0	0	0	0	507	
10	0	0	0	0	512	
11	0	0	0	0	504	
12	0	0	0	0	505	
13	0	0	0	0	512	
14	0	0	0	0	515	
15	0	0	0	0	515	
0	0	0	0	0	513	
1	0	0	0	0	511	
2	0	0	0	0	510	
3	0	0	0	0	510	
4	0	0	0	0	515	
5	0	0	0	0	512	
6	0	0	0	0	512	
7	0	0	0	0	510	
8	0	0	0	0	508	
9	0	0	0	0	515	
10	0	0	0	0	512	
11	0	0	0	0	502	
12	0	0	0	0	509	
13	0	0	0	0	512	
14	0	0	0	0	513	
15	0	0	0	0	508	
0	0	0	0	0	519	
1	0	0	0	0	522	
2	0	0	0	0	510	
3	0	0	0	0	507	
4	0	0	0	0	507	
5	0	0	0	0	516	
6	0	0	0	0	519	
7	0	0	0	0	523	
8	0	0	0	0	512	
9	0	0	0	0	507	
10	0	0	0	0	517	
11	0	0	0	0	514	
12	0	0	0	0	512	
13	0	0	0	0	512	
14	0	0	0	0	512	
15	0	0	0	0	507	
0	0	0	0	0	507	
1	0	0	0	0	513	
2	0	0	0	0	512	
3	0	0	0	0	511	
4	0	0	0	0	512	
5	0	0	0	0	511	
6	0	0	0	0	511	
7	0	0	0	0	507	
8	0	0	0	0	500	
9	0	0	0	0	503	
10	0	0	0	0	522	
11	0	0	0	0	526	
12	0	0	0	0	514	
13	0	0	0	0	511	
14	0	0	0	0	509	
15	0	0	0	0	506	
0	0	0	0	0	501	
1	0	0	0	0	517	
2	0	0	0	0	508	
3	0	0	0	0	503	
4	0	0	0	0	523	
5	0	0	0	0	522	
6	0	0	0	0	519	
7	0	0	0	0	511	
8	0	0	0	0	511	
9	0	0	0	0	510	
10	0	0	0	0	509	
11	0	0	0	0	509	
12	0	0	0	0	506	
13	0	0	0	0	509	
14	0	0	0	0	510	
15	0	0	0	0	512	
0	0	0	0	0	512	
1	0	0	0	0	509	
2	0	0	0	0	512	
3	0	0	0	0	513	
4	0	0	0	0	510	
5	0	0	0	0	509	
6	0	0	0	0	509	
7	0	0	0	0	510	
8	0	0	0	0	511	
9	0	0	0	0	514	
10	0	0	0	0	515	
11	0	0	0	0	514	
12	0	0	0	0	512	
13	0	0	0	0	515	
14	0	0	0	0	512	
15	0	0	0	0	515	
0	0	0	0	0	510	
1	0	0	0	0	512	
2	0	0	0	0	510	
3	0	0	0	0	508	
4	0	0	0	0	502	
5	0	0	0	0	511	
6	0	0	0	0	524	
7	0	0	0	0	519	
8	0	0	0	0	511	
9	0	0	0	0	511	
10	0	0	0	0	515	
11	0	0	0	0	511	
12	0	0	0	0	509	
13	0	0	0	0	512	
14	0	0	0	0	514	
15	0	0	0	0	512	
0	0	0	0	0	509	
1	0	0	0	0	510	
2	0	0	0	0	507	
3	0	0	0	0	504	
4	0	0	0	0	507	
5	0	0	0	0	514	
6	0	0	0	0	515	
7	0	0	0	0	511	
8	0	0	0	0	508	
9	0	0	0	0	505	
10	0	0	0	0	513	
11	0	0	0	0	515	
12	0	0	0	0	513	
13	0	0	0	0	510	
14	0	0	0	0	506	
15	0	0	0	0	509	
0	0	0	0	0	519	
1	0	0	0	0	516	
2	0	0	0	0	510	
3	0	0	0	0	506	
4	0	0	0	0	511	
5	0	0	0	0	508	
6	0	0	0	0	510	
7	0	0	0	0	513	
8	0	0	0	0	521	
9	0	0	0	0	529	
10	0	0	0	0	522	
11	0	0	0	0	518	
12	0	0	0	0	513	
13	0	0	0	0	508	
14	0	0	0	0	510	
15	0	0	0	0	509	
0	0	0	0	0	510	
1	0	0	0	0	512	
2	0	0	0	0	511	
3	0	0	0	0	510	
4	0	0	0	0	512	
5	0	0	0	0	513	
6	0	0	0	0	508	
7	0	0	0	0	511	
8	0	0	0	0	513	
9	0	0	0	0	513	
10	0	0	0	0	511	
11	0	0	0	0	510	
12	0	0	0	0	505	
13	0	0	0	0	507	
14	0	0	0	0	507	
15	0	0	0	0	508	
0	0	0	0	0	515	
1	0	0	0	0	522	
2	0	0	0	0	515	
3	0	0	0	0	519	
4	0	0	0	0	525	
5	0	0	0	0	514	
6	0	0	0	0	512	
7	0	0	0	0	512	
8	0	0	0	0	512	
9	0	0	0	0	511	
10	0	0	0	0	511	
11	0	0	0	0	503	
12	0	0	0	0	511	
13	0	0	0	0	512	
14	0	0	0	0	510	
15	0	0	0	0	508	
0	0	0	0	0	508	
1	0	0	0	0	509	
2	0	0	0	0	502	
3	0	0	0	0	511	
4	0	0	0	0	512	
5	0	0	0	0	504	
6	0	0	0	0	519	
7	0	0	0	0	516	
8	0	0	0	0	507	
9	0	0	0	0	509	
10	0	0	0	0	516	
11	0	0	0	0	520	
12	0	0	0	0	520	
13	0	0	0	0	514	
14	0	0	0	0	507	
15	0	0	0	0	504	
0	0	0	0	0	514	
1	0	0	0	0	515	
2	0	0	0	0	518	
3	0	0	0	0	516	
4	0	0	0	0	505	
5	0	0	0	0	502	
6	0	0	0	0	505	
7	0	0	0	0	511	
8	0	0	0	0	516	
9	0	0	0	0	513	
10	0	0	0	0	507	
11	0	0	0	0	510	
12	0	0	0	0	515	
13	0	0	0	0	517	
14	0	0	0	0	528	
15	0	0	0	0	517	
0	0	0	0	0	507	
1	0	0	0	0	510	
2	0	0	0	0	510	
3	0	0	0	0	508	
4	0	0	0	0	511	
5	0	0	0	0	510	
6	0	0	0	0	506	
7	0	0	0	0	508	
8	0	0	0	0	510	
9	0	0	0	0	512	
10	0	0	0	0	512	
11	0	0	0	0	510	
12	0	0	0	0	507	
13	0	0	0	0	514	
14	0	0	0	0	512	
15	0	0	0	0	512	
0	0	0	0	0	512	
1	0	0	0	0	509	
2	0	0	0	0	508	
3	0	0	0	0	515	
4	0	0	0	0	515	
5	0	0	0	0	520	
6	0	0	0	0	521	
7	0	0	0	0	511	
8	0	0	0	0	509	
9	0	0	0	0	509	
10	0	0	0	0	507	
11	0	0	0	0	504	
12	0	0	0	0	511	
13	0	0	0	0	515	
14	0	0	0	0	508	
15	0	0	0	0	505	
0	0	0	0	0	510	
1	0	0	0	0	510	
2	0	0	0	0	521	
3	0	0	0	0	521	
4	0	0	0	0	521	
5	0	0	0	0	513	
6	0	0	0	0	510	
7	0	0	0	0	512	
8	0	0	0	0	512	
9	0	0	0	0	509	
10	0	0	0	0	505	
11	0	0	0	0	511	
12	0	0	0	0	514	
13	0	0	0	0	506	
14	0	0	0	0	505	
15	0	0	0	0	520	
0	0	0	0	0	523	
1	0	0	0	0	522	
2	0	0	0	0	516	
3	0	0	0	0	512	
4	0	0	0	0	511	
5	0	0	0	0	508	
6	0	0	0	0	507	
7	0	0	0	0	505	
8	0	0	0	0	509	
9	0	0	0	0	513	
10	0	0	0	0	507	
11	0	0	0	0	501	
12	0	0	0	0	515	
13	0	0	0	0	515	
14	0	0	0	0	509	
15	0	0	0	0	505	
0	0	0	0	0	513	
1	0	0	0	0	515	
2	0	0	0	0	514	
3	0	0	0	0	515	
4	0	0	0	0	512	
5	0	0	0	0	515	
6	0	0	0	0	518	
7	0	0	0	0	518	
8	0	0	0	0	511	
9	0	0	0	0	510	
10	0	0	0	0	508	
11	0	0	0	0	512	
12	0	0	0	0	521	
13	0	0	0	0	516	
14	0	0	0	0	508	
15	0	0	0	0	512	
0	0	0	0	0	510	
1	0	0	0	0	511	
2	0	0	0	0	515	
3	0	0	0	0	513	
4	0	0	0	0	512	
5	0	0	0	0	513	
6	0	0	0	0	509	
7	0	0	0	0	509	
8	0	0	0	0	512	
9	0	0	0	0	510	
10	0	0	0	0	507	
11	0	0	0	0	507	
12	0	0	0	0	506	
13	0	0	0	0	507	
14	0	0	0	0	506	
15	0	0	0	0	509	
0	0	0	0	0	507	
1	0	0	0	0	515	
2	0	0	0	0	513	
3	0	0	0	0	507	
4	0	0	0	0	511	
5	0	0	0	0	511	
6	0	0	0	0	509	
7	0	0	0	0	515	
8	0	0	0	0	523	
9	0	0	0	0	524	
10	0	0	0	0	520	
11	0	0	0	0	518	
12	0	0	0	0	517	
13	0	0	0	0	508	
14	0	0	0	0	503	
15	0	0	0	0	514	
0	0	0	0	0	516	
1	0	0	0	0	511	
2	0	0	0	0	512	
3	0	0	0	0	510	
4	0	0	0	0	509	
5	0	0	0	0	507	
6	0	0	0	0	508	
7	0	0	0	0	505	
8	0	0	0	0	507	
9	0	0	0	0	518	
10	0	0	0	0	519	
11	0	0	0	0	513	
12	0	0	0	0	508	
13	0	0	0	0	511	
14	0	0	0	0	508	
15	0	0	0	0	506	
0	0	0	0	0	516	
1	0	0	0	0	514	
2	0	0	0	0	515	
3	0	0	0	0	512	
4	0	0	0	0	514	
5	0	0	0	0	519	
6	0	0	0	0	513	
7	0	0	0	0	512	
8	0	0	0	0	515	
9	0	0	0	0	505	
10	0	0	0	0	508	
11	0	0	0	0	518	
12	0	0	0	0	514	
13	0	0	0	0	508	
14	0	0	0	0	512	
15	0	0	0	0	509	
0	0	0	0	0	505	
1	0	0	0	0	515	
2	0	0	0	0	516	
3	0	0	0	0	513	
4	0	0	0	0	508	
5	0	0	0	0	512	
6	0	0	0	0	504	
7	0	0	0	0	505	
8	0	0	0	0	523	
9	0	0	0	0	518	
10	0	0	0	0	515	
11	0	0	0	0	513	
12	0	0	0	0	516	
13	0	0	0	0	515	
14	0	0	0	0	512	
15	0	0	0	0	511	
0	0	0	0	0	500	
1	0	0	0	0	498	
2	0	0	0	0	510	
3	0	0	0	0	514	
4	0	0	0	0	516	
5	0	0	0	0	522	
6	0	0	0	0	526	
7	0	0	0	0	516	
8	0	0	0	0	512	
9	0	0	0	0	508	
10	0	0	0	0	511	
11	0	0	0	0	511	
12	0	0	0	0	512	
13	0	0	0	0	514	
14	0	0	0	0	513	
15	0	0	0	0	512	
0	0	0	0	0	506	
1	0	0	0	0	500	
2	0	0	0	0	511	
3	0	0	0	0	518	
4	0	0	0	0	518	
5	0	0	0	0	510	
6	0	0	0	0	511	
7	0	0	0	0	510	
8	0	0	0	0	514	
9	0	0	0	0	510	
10	0	0	0	0	512	
11	0	0	0	0	507	
12	0	0	0	0	508	
13	0	0	0	0	510	
14	0	0	0	0	511	
15	0	0	0	0	519	
0	0	0	0	0	521	
1	0	0	0	0	511	
2	0	0	0	0	515	
3	0	0	0	0	511	
4	0	0	0	0	515	
5	0	0	0	0	512	
6	0	0	0	0	512	
7	0	0	0	0	512	
8	0	0	0	0	506	
9	0	0	0	0	507	
10	0	0	0	0	513	
11	0	0	0	0	521	
12	0	0	0	0	512	
13	0	0	0	0	505	
14	0	0	0	0	505	
15	0	0	0	0	505	
0	0	0	0	0	504	
1	0	0	0	0	508	
2	0	0	0	0	514	
3	0	0	0	0	517	
4	0	0	0	0	516	
5	0	0	0	0	516	
6	0	0	0	0	516	
7	0	0	0	0	515	
8	0	0	0	0	513	
9	0	0	0	0	495	
10	0	0	0	0	503	
11	0	0	0	0	524	
12	0	0	0	0	508	
13	0	0	0	0	486	
14	0	0	0	0	489	
15	0	0	0	0	509	
0	0	0	0	0	537	
1	0	0	0	0	548	
2	0	0	0	0	531	
3	0	0	0	0	511	
4	0	0	0	0	505	
5	0	0	0	0	508	
6	0	0	0	0	515	
7	0	0	0	0	507	
8	0	0	0	0	511	
9	0	0	0	0	510	
10	0	0	0	0	516	
11	0	0	0	0	512	
12	0	0	0	0	504	
13	0	0	0	0	515	
14	0	0	0	0	525	
15	0	0	0	0	514	
0	0	0	0	0	514	
1	0	0	0	0	514	
2	0	0	0	0	512	
3	0	0	0	0	505	
4	0	0	0	0	511	
5	0	0	0	0	510	
6	0	0	0	0	512	
7	0	0	0	0	512	
8	0	0	0	0	508	
9	0	0	0	0	510	
10	0	0	0	0	508	
11	0	0	0	0	512	
12	0	0	0	0	522	
13	0	0	0	0	519	
14	0	0	0	0	515	
15	0	0	0	0	509	
0	0	0	0	0	505	
1	0	0	0	0	506	
2	0	0	0	0	508	
3	0	0	0	0	506	
4	0	0	0	0	509	
5	0	0	0	0	507	
6	0	0	0	0	510	
7	0	0	0	0	511	
8	0	0	0	0	511	
9	0	0	0	0	512	
10	0	0	0	0	512	
11	0	0	0	0	515	
12	0	0	0	0	504	
13	0	0	0	0	503	
14	0	0	0	0	514	
15	0	0	0	0	521	
0	0	0	0	0	515	
1	0	0	0	0	508	
2	0	0	0	0	512	
3	0	0	0	0	514	
4	0	0	0	0	515	
5	0	0	0	0	512	
6	0	0	0	0	512	
7	0	0	0	0	507	
8	0	0	0	0	504	
9	0	0	0	0	513	
10	0	0	0	0	506	
11	0	0	0	0	504	
12	0	0	0	0	511	
13	0	0	0	0	521	
14	0	0	0	0	519	
15	0	0	0	0	512	
0	0	0	0	0	507	
1	0	0	0	0	510	
2	0	0	0	0	507	
3	0	0	0	0	507	
4	0	0	0	0	505	
5	0	0	0	0	509	
6	0	0	0	0	524	
7	0	0	0	0	522	
8	0	0	0	0	516	
9	0	0	0	0	514	
10	0	0	0	0	514	
11	0	0	0	0	510	
12	0	0	0	0	502	
13	0	0	0	0	497	
14	0	0	0	0	510	
15	0	0	0	0	520	
0	0	0	0	0	515	
1	0	0	0	0	497	
2	0	0	0	0	502	
3	0	0	0	0	512	
4	0	0	0	0	519	
5	0	0	0	0	508	
6	0	0	0	0	519	
7	0	0	0	0	512	
8	0	0	0	0	508	
9	0	0	0	0	511	
10	0	0	0	0	515	
11	0	0	0	0	525	
12	0	0	0	0	521	
13	0	0	0	0	513	
14	0	0	0	0	511	
15	0	0	0	0	511	
0	0	0	0	0	513	
1	0	0	0	0	515	
2	0	0	0	0	514	
3	0	0	0	0	515	
4	0	0	0	0	511	
5	0	0	0	0	504	
6	0	0	0	0	513	
7	0	0	0	0	511	
8	0	0	0	0	512	
9	0	0	0	0	505	
10	0	0	0	0	510	
11	0	0	0	0	514	
12	0	0	0	0	516	
13	0	0	0	0	513	
14	0	0	0	0	512	
15	0	0	0	0	507	
0	0	0	0	0	512	
1	0	0	0	0	512	
2	0	0	0	0	518	
3	0	0	0	0	514	
4	0	0	0	0	515	
5	0	0	0	0	511	
6	0	0	0	0	517	
7	0	0	0	0	518	
8	0	0	0	0	514	
9	0	0	0	0	512	
10	0	0	0	0	513	
11	0	0	0	0	513	
12	0	0	0	0	508	
13	0	0	0	0	504	
14	0	0	0	0	505	
15	0	0	0	0	506	
0	0	0	0	0	509	
1	0	0	0	0	509	
2	0	0	0	0	511	
3	0	0	0	0	510	
4	0	0	0	0	510	
5	0	0	0	0	511	
6	0	0	0	0	515	
7	0	0	0	0	512	
8	0	0	0	0	513	
9	0	0	0	0	509	
10	0	0	0	0	511	
11	0	0	0	0	509	
12	0	0	0	0	513	
13	0	0	0	0	512	
14	0	0	0	0	513	
15	0	0	0	0	510	
0	0	0	0	0	514	
1	0	0	0	0	513	
2	0	0	0	0	512	
3	0	0	0	0	513	
4	0	0	0	0	512	
5	0	0	0	0	512	
6	0	0	0	0	512	
7	0	0	0	0	514	
8	0	0	0	0	513	
9	0	0	0	0	511	
10	0	0	0	0	510	
11	0	0	0	0	511	
12	0	0	0	0	518	
13	0	0	0	0	513	
14	0	0	0	0	508	
15	0	0	0	0	514	
0	0	0	0	0	513	
1	0	0	0	0	513	
2	0	0	0	0	509	
3	0	0	0	0	511	
4	0	0	0	0	512	
5	0	0	0	0	512	
6	0	0	0	0	511	
7	0	0	0	0	514	
8	0	0	0	0	515	
9	0	0	0	0	515	
10	0	0	0	0	513	
11	0	0	0	0	512	
12	0	0	0	0	512	
13	0	0	0	0	509	
14	0	0	0	0	510	
15	0	0	0	0	510	
0	0	0	0	0	510	
1	0	0	0	0	510	
2	0	0	0	0	511	
3	0	0	0	0	512	
4	0	0	0	0	513	
5	0	0	0	0	511	
6	0	0	0	0	511	
7	0	0	0	0	503	
8	0	0	0	0	505	
9	0	0	0	0	513	
10	0	0	0	0	515	
11	0	0	0	0	510	
12	0	0	0	0	511	
13	0	0	0	0	512	
14	0	0	0	0	515	
15	0	0	0	0	513	
0	0	0	0	0	518	
1	0	0	0	0	517	
2	0	0	0	0	512	
3	0	0	0	0	511	
4	0	0	0	0	513	
5	0	0	0	0	512	
6	0	0	0	0	517	
7	0	0	0	0	512	
8	0	0	0	0	510	
9	0	0	0	0	512	
10	0	0	0	0	515	
11	0	0	0	0	515	
12	0	0	0	0	512	
13	0	0	0	0	513	
14	0	0	0	0	515	
15	0	0	0	0	510	
0	0	0	0	0	515	
1	0	0	0	0	503	
2	0	0	0	0	500	
3	0	0	0	0	508	
4	0	0	0	0	512	
5	0	0	0	0	513	
6	0	0	0	0	510	
7	0	0	0	0	499	
8	0	0	0	0	502	
9	0	0	0	0	518	
10	0	0	0	0	523	
11	0	0	0	0	524	
12	0	0	0	0	520	
13	0	0	0	0	517	
14	0	0	0	0	512	
15	0	0	0	0	510	
0	0	0	0	0	512	
1	0	0	0	0	512	
2	0	0	0	0	508	
3	0	0	0	0	504	
4	0	0	0	0	513	
5	0	0	0	0	519	
6	0	0	0	0	519	
7	0	0	0	0	512	
8	0	0	0	0	506	
9	0	0	0	0	512	
10	0	0	0	0	512	
11	0	0	0	0	515	
12	0	0	0	0	513	
13	0	0	0	0	513	
14	0	0	0	0	514	
15	0	0	0	0	508	
0	0	0	0	0	510	
1	0	0	0	0	524	
2	0	0	0	0	516	
3	0	0	0	0	507	
4	0	0	0	0	508	
5	0	0	0	0	509	
6	0	0	0	0	512	
7	0	0	0	0	511	
8	0	0	0	0	516	
9	0	0	0	0	512	
10	0	0	0	0	513	
11	0	0	0	0	508	
12	0	0	0	0	508	
13	0	0	0	0	511	
14	0	0	0	0	510	
15	0	0	0	0	510	
0	0	0	0	0	511	
1	0	0	0	0	511	
2	0	0	0	0	514	
3	0	0	0	0	506	
4	0	0	0	0	515	
5	0	0	0	0	519	
6	0	0	0	0	515	
7	0	0	0	0	510	
8	0	0	0	0	512	
9	0	0	0	0	512	
10	0	0	0	0	511	
11	0	0	0	0	511	
12	0	0	0	0	505	
13	0	0	0	0	500	
14	0	0	0	0	511	
15	0	0	0	0	514	
0	0	0	0	0	505	
1	0	0	0	0	512	
2	0	0	0	0	514	
3	0	0	0	0	512	
4	0	0	0	0	512	
5	0	0	0	0	509	
6	0	0	0	0	512	
7	0	0	0	0	512	
8	0	0	0	0	511	
9	0	0	0	0	509	
10	0	0	0	0	510	
11	0	0	0	0	509	
12	0	0	0	0	507	
13	0	0	0	0	508	
14	0	0	0	0	508	
15	0	0	0	0	513	
0	0	0	0	0	515	
1	0	0	0	0	509	
2	0	0	0	0	507	
3	0	0	0	0	512	
4	0	0	0	0	516	
5	0	0	0	0	515	
6	0	0	0	0	511	
7	0	0	0	0	509	
8	0	0	0	0	511	
9	0	0	0	0	512	
10	0	0	0	0	512	
11	0	0	0	0	511	
12	0	0	0	0	514	
13	0	0	0	0	513	
14	0	0	0	0	514	
15	0	0	0	0	514	
0	0	0	0	0	516	
1	0	0	0	0	515	
2	0	0	0	0	509	
3	0	0	0	0	513	
4	0	0	0	0	515	
5	0	0	0	0	512	
6	0	0	0	0	511	
7	0	0	0	0	511	
8	0	0	0	0	512	
9	0	0	0	0	510	
10	0	0	0	0	514	
11	0	0	0	0	512	
12	0	0	0	0	508	
13	0	0	0	0	510	
14	0	0	0	0	519	
15	0	0	0	0	518	
0	0	0	0	0	512	
1	0	0	0	0	507	
2	0	0	0	0	510	
3	0	0	0	0	512	
4	0	0	0	0	512	
5	0	0	0	0	519	
6	0	0	0	0	515	
7	0	0	0	0	511	
8	0	0	0	0	508	
9	0	0	0	0	510	
10	0	0	0	0	508	
11	0	0	0	0	514	
12	0	0	0	0	515	
13	0	0	0	0	514	
14	0	0	0	0	509	
15	0	0	0	0	509	
0	0	0	0	0	512	
1	0	0	0	0	511	
2	0	0	0	0	510	
3	0	0	0	0	505	
4	0	0	0	0	508	
5	0	0	0	0	509	
6	0	0	0	0	511	
7	0	0	0	0	513	
8	0	0	0	0	515	
9	0	0	0	0	510	
10	0	0	0	0	508	
11	0	0	0	0	515	
12	0	0	0	0	514	
13	0	0	0	0	511	
14	0	0	0	0	514	
15	0	0	0	0	516	
0	0	0	0	0	513	
1	0	0	0	0	511	
2	0	0	0	0	508	
3	0	0	0	0	499	
4	0	0	0	0	509	
5	0	0	0	0	519	
6	0	0	0	0	518	
7	0	0	0	0	517	
8	0	0	0	0	516	
9	0	0	0	0	514	
10	0	0	0	0	516	
11	0	0	0	0	515	
12	0	0	0	0	512	
13	0	0	0	0	511	
14	0	0	0	0	512	
15	0	0	0	0	512	
0	0	0	0	0	513	
1	0	0	0	0	512	
2	0	0	0	0	512	
3	0	0	0	0	513	
4	0	0	0	0	511	
5	0	0	0	0	514	
6	0	0	0	0	516	
7	0	0	0	0	513	
8	0	0	0	0	504	
9	0	0	0	0	505	
10	0	0	0	0	510	
11	0	0	0	0	507	
12	0	0	0	0	516	
13	0	0	0	0	511	
14	0	0	0	0	519	
15	0	0	0	0	524	
0	0	0	0	0	519	
1	0	0	0	0	512	
2	0	0	0	0	518	
3	0	0	0	0	518	
4	0	0	0	0	517	
5	0	0	0	0	513	
6	0	0	0	0	508	
7	0	0	0	0	503	
8	0	0	0	0	508	
9	0	0	0	0	511	
10	0	0	0	0	506	
11	0	0	0	0	509	
12	0	0	0	0	513	
13	0	0	0	0	518	
14	0	0	0	0	518	
15	0	0	0	0	510	
0	0	0	0	0	503	
1	0	0	0	0	503	
2	0	0	0	0	505	
3	0	0	0	0	507	
4	0	0	0	0	511	
5	0	0	0	0	513	
6	0	0	0	0	512	
7	0	0	0	0	512	
8	0	0	0	0	517	
9	0	0	0	0	516	
10	0	0	0	0	514	
11	0	0	0	0	511	
12	0	0	0	0	508	
13	0	0	0	0	515	
14	0	0	0	0	514	
15	0	0	0	0	510	
0	0	0	0	0	504	
1	0	0	0	0	509	
2	0	0	0	0	512	
3	0	0	0	0	516	
4	0	0	0	0	512	
5	0	0	0	0	518	
6	0	0	0	0	515	
7	0	0	0	0	515	
8	0	0	0	0	515	
9	0	0	0	0	518	
10	0	0	0	0	516	
11	0	0	0	0	514	
12	0	0	0	0	512	
13	0	0	0	0	513	
14	0	0	0	0	510	
15	0	0	0	0	512	
0	0	0	0	0	511	
1	0	0	0	0	512	
2	0	0	0	0	515	
3	0	0	0	0	513	
4	0	0	0	0	513	
5	0	0	0	0	507	
6	0	0	0	0	503	
7	0	0	0	0	504	
8	0	0	0	0	508	
9	0	0	0	0	510	
10	0	0	0	0	511	
11	0	0	0	0	515	
12	0	0	0	0	511	
13	0	0	0	0	511	
14	0	0	0	0	510	
15	0	0	0	0	509	
0	0	0	0	0	510	
1	0	0	0	0	515	
2	0	0	0	0	515	
3	0	0	0	0	515	
4	0	0	0	0	513	
5	0	0	0	0	515	
6	0	0	0	0	516	
7	0	0	0	0	513	
8	0	0	0	0	510	
9	0	0	0	0	512	
10	0	0	0	0	511	
11	0	0	0	0	511	
12	0	0	0	0	519	
13	0	0	0	0	514	
14	0	0	0	0	508	
15	0	0	0	0	511	
0	0	0	0	0	511	
1	0	0	0	0	508	
2	0	0	0	0	512	
3	0	0	0	0	510	
4	0	0	0	0	511	
5	0	0	0	0	507	
6	0	0	0	0	511	
7	0	0	0	0	512	
8	0	0	0	0	511	
9	0	0	0	0	512	
10	0	0	0	0	511	
11	0	0	0	0	513	
12	0	0	0	0	514	
13	0	0	0	0	514	
14	0	0	0	0	513	
15	0	0	0	0	511	
0	0	0	0	0	511	
1	0	0	0	0	507	
2	0	0	0	0	507	
3	0	0	0	0	512	
4	0	0	0	0	513	
5	0	0	0	0	512	
6	0	0	0	0	512	
7	0	0	0	0	512	
8	0	0	0	0	513	
9	0	0	0	0	509	
10	0	0	0	0	509	
11	0	0	0	0	511	
12	0	0	0	0	510	
13	0	0	0	0	489	
14	0	0	0	0	505	
15	0	0	0	0	519	
0	0	0	0	0	534	
1	0	0	0	0	537	
2	0	0	0	0	532	
3	0	0	0	0	517	
4	0	0	0	0	504	
5	0	0	0	0	507	
6	0	0	0	0	504	
7	0	0	0	0	501	
8	0	0	0	0	497	
9	0	0	0	0	495	
10	0	0	0	0	515	
11	0	0	0	0	519	
12	0	0	0	0	518	
13	0	0	0	0	516	
14	0	0	0	0	511	
15	0	0	0	0	511	
0	0	0	0	0	515	
1	0	0	0	0	511	
2	0	0	0	0	506	
3	0	0	0	0	512	
4	0	0	0	0	515	
5	0	0	0	0	519	
6	0	0	0	0	515	
7	0	0	0	0	499	
8	0	0	0	0	509	
9	0	0	0	0	527	
10	0	0	0	0	525	
11	0	0	0	0	511	
12	0	0	0	0	508	
13	0	0	0	0	503	
14	0	0	0	0	518	
15	0	0	0	0	517	
0	0	0	0	0	507	
1	0	0	0	0	510	
2	0	0	0	0	510	
3	0	0	0	0	510	
4	0	0	0	0	516	
5	0	0	0	0	508	
6	0	0	0	0	508	
7	0	0	0	0	512	
8	0	0	0	0	516	
9	0	0	0	0	511	
10	0	0	0	0	511	
11	0	0	0	0	511	
12	0	0	0	0	510	
13	0	0	0	0	506	
14	0	0	0	0	513	
15	0	0	0	0	513	
0	0	0	0	0	515	
1	0	0	0	0	519	
2	0	0	0	0	520	
3	0	0	0	0	520	
4	0	0	0	0	516	
5	0	0	0	0	510	
6	0	0	0	0	509	
7	0	0	0	0	516	
8	0	0	0	0	516	
9	0	0	0	0	517	
10	0	0	0	0	508	
11	0	0	0	0	510	
12	0	0	0	0	514	
13	0	0	0	0	508	
14	0	0	0	0	503	
15	0	0	0	0	488	
0	0	0	0	0	515	
1	0	0	0	0	533	
2	0	0	0	0	513	
3	0	0	0	0	526	
4	0	0	0	0	520	
5	0	0	0	0	507	
6	0	0	0	0	497	
7	0	0	0	0	499	
8	0	0	0	0	528	
9	0	0	0	0	521	
10	0	0	0	0	508	
11	0	0	0	0	514	
12	0	0	0	0	514	
13	0	0	0	0	507	
14	0	0	0	0	505	
15	0	0	0	0	505	
0	0	0	0	0	511	
1	0	0	0	0	513	
2	0	0	0	0	508	
3	0	0	0	0	502	
4	0	0	0	0	514	
5	0	0	0	0	523	
6	0	0	0	0	518	
7	0	0	0	0	512	
8	0	0	0	0	501	
9	0	0	0	0	507	
10	0	0	0	0	509	
11	0	0	0	0	509	
12	0	0	0	0	512	
13	0	0	0	0	517	
14	0	0	0	0	515	
15	0	0	0	0	510	
0	0	0	0	0	513	
1	0	0	0	0	507	
2	0	0	0	0	511	
3	0	0	0	0	512	
4	0	0	0	0	510	
5	0	0	0	0	516	
6	0	0	0	0	516	
7	0	0	0	0	513	
8	0	0	0	0	509	
9	0	0	0	0	513	
10	0	0	0	0	515	
11	0	0	0	0	512	
12	0	0	0	0	512	
13	0	0	0	0	511	
14	0	0	0	0	508	
15	0	0	0	0	509	
0	0	0	0	0	513	
1	0	0	0	0	511	
2	0	0	0	0	511	
3	0	0	0	0	510	
4	0	0	0	0	509	
5	0	0	0	0	511	
6	0	0	0	0	509	
7	0	0	0	0	509	
8	0	0	0	0	511	
9	0	0	0	0	512	
10	0	0	0	0	512	
11	0	0	0	0	511	
12	0	0	0	0	510	
13	0	0	0	0	509	
14	0	0	0	0	513	
15	0	0	0	0	512	
0	0	0	0	0	512	
1	0	0	0	0	511	
2	0	0	0	0	509	
3	0	0	0	0	512	
4	0	0	0	0	513	
5	0	0	0	0	514	
6	0	0	0	0	513	
7	0	0	0	0	512	
8	0	0	0	0	515	
9	0	0	0	0	512	
10	0	0	0	0	510	
11	0	0	0	0	512	
12	0	0	0	0	511	
13	0	0	0	0	511	
14	0	0	0	0	512	
15	0	0	0	0	513	
0	0	0	0	0	513	
1	0	0	0	0	514	
2	0	0	0	0	514	
3	0	0	0	0	511	
4	0	0	0	0	509	
5	0	0	0	0	506	
6	0	0	0	0	500	
7	0	0	0	0	499	
8	0	0	0	0	510	
9	0	0	0	0	508	
10	0	0	0	0	509	
11	0	0	0	0	532	
12	0	0	0	0	528	
13	0	0	0	0	523	
14	0	0	0	0	519	
15	0	0	0	0	518	
0	0	0	0	0	517	
1	0	0	0	0	512	
2	0	0	0	0	515	
3	0	0	0	0	504	
4	0	0	0	0	511	
5	0	0	0	0	511	
6	0	0	0	0	507	
7	0	0	0	0	509	
8	0	0	0	0	512	
9	0	0	0	0	511	
10	0	0	0	0	510	
11	0	0	0	0	509	
12	0	0	0	0	502	
13	0	0	0	0	497	
14	0	0	0	0	509	
15	0	0	0	0	517	
0	0	0	0	0	514	
1	0	0	0	0	512	
2	0	0	0	0	529	
3	0	0	0	0	516	
4	0	0	0	0	512	
5	0	0	0	0	517	
6	0	0	0	0	523	
7	0	0	0	0	509	
8	0	0	0	0	508	
9	0	0	0	0	520	
10	0	0	0	0	511	
11	0	0	0	0	510	
12	0	0	0	0	508	
13	0	0	0	0	511	
14	0	0	0	0	511	
15	0	0	0	0	509	
0	0	0	0	0	507	
1	0	0	0	0	507	
2	0	0	0	0	509	
3	0	0	0	0	512	
4	0	0	0	0	509	
5	0	0	0	0	508	
6	0	0	0	0	505	
7	0	0	0	0	509	
8	0	0	0	0	511	
9	0	0	0	0	508	
10	0	0	0	0	505	
11	0	0	0	0	520	
12	0	0	0	0	505	
13	0	0	0	0	498	
14	0	0	0	0	507	
15	0	0	0	0	511	
0	0	0	0	0	518	
1	0	0	0	0	537	
2	0	0	0	0	539	
3	0	0	0	0	527	
4	0	0	0	0	519	
5	0	0	0	0	512	
6	0	0	0	0	511	
7	0	0	0	0	509	
8	0	0	0	0	504	
9	0	0	0	0	505	
10	0	0	0	0	513	
11	0	0	0	0	512	
12	0	0	0	0	510	
13	0	0	0	0	506	
14	0	0	0	0	507	
15	0	0	0	0	512	
0	0	0	0	0	511	
1	0	0	0	0	507	
2	0	0	0	0	504	
3	0	0	0	0	504	
4	0	0	0	0	510	
5	0	0	0	0	507	
6	0	0	0	0	511	
7	0	0	0	0	523	
8	0	0	0	0	522	
9	0	0	0	0	519	
10	0	0	0	0	513	
11	0	0	0	0	509	
12	0	0	0	0	509	
13	0	0	0	0	510	
14	0	0	0	0	511	
15	0	0	0	0	511	
0	0	0	0	0	513	
1	0	0	0	0	507	
2	0	0	0	0	510	
3	0	0	0	0	512	
4	0	0	0	0	512	
5	0	0	0	0	513	
6	0	0	0	0	508	
7	0	0	0	0	508	
8	0	0	0	0	505	
9	0	0	0	0	523	
10	0	0	0	0	522	
11	0	0	0	0	508	
12	0	0	0	0	499	
13	0	0	0	0	513	
14	0	0	0	0	520	
15	0	0	0	0	521	
0	0	0	0	0	519	
1	0	0	0	0	523	
2	0	0	0	0	514	
3	0	0	0	0	504	
4	0	0	0	0	505	
5	0	0	0	0	500	
6	0	0	0	0	511	
7	0	0	0	0	515	
8	0	0	0	0	520	
9	0	0	0	0	515	
10	0	0	0	0	511	
11	0	0	0	0	509	
12	0	0	0	0	510	
13	0	0	0	0	505	
14	0	0	0	0	507	
15	0	0	0	0	507	
0	0	0	0	0	511	
1	0	0	0	0	512	
2	0	0	0	0	509	
3	0	0	0	0	511	
4	0	0	0	0	514	
5	0	0	0	0	508	
6	0	0	0	0	507	
7	0	0	0	0	496	
8	0	0	0	0	501	
9	0	0	0	0	524	
10	0	0	0	0	527	
11	0	0	0	0	513	
12	0	0	0	0	520	
13	0	0	0	0	511	
14	0	0	0	0	510	
15	0	0	0	0	516	
0	0	0	0	0	503	
1	0	0	0	0	505	
2	0	0	0	0	515	
3	0	0	0	0	520	
4	0	0	0	0	515	
5	0	0	0	0	513	
6	0	0	0	0	514	
7	0	0	0	0	515	
8	0	0	0	0	515	
9	0	0	0	0	513	
10	0	0	0	0	513	
11	0	0	0	0	512	
12	0	0	0	0	510	
13	0	0	0	0	507	
14	0	0	0	0	505	
15	0	0	0	0	501	
0	0	0	0	0	515	
1	0	0	0	0	522	
2	0	0	0	0	520	
3	0	0	0	0	519	
4	0	0	0	0	516	
5	0	0	0	0	509	
6	0	0	0	0	507	
7	0	0	0	0	506	
8	0	0	0	0	509	
9	0	0	0	0	507	
10	0	0	0	0	521	
11	0	0	0	0	519	
12	0	0	0	0	514	
13	0	0	0	0	511	
14	0	0	0	0	520	
15	0	0	0	0	511	
0	0	0	0	0	499	
1	0	0	0	0	511	
2	0	0	0	0	519	
3	0	0	0	0	507	
4	0	0	0	0	507	
5	0	0	0	0	515	
6	0	0	0	0	515	
7	0	0	0	0	514	
8	0	0	0	0	520	
9	0	0	0	0	519	
10	0	0	0	0	506	
11	0	0	0	0	511	
12	0	0	0	0	514	
13	0	0	0	0	511	
14	0	0	0	0	508	
15	0	0	0	0	504	
0	0	0	0	0	513	
1	0	0	0	0	516	
2	0	0	0	0	505	
3	0	0	0	0	509	
4	0	0	0	0	511	
5	0	0	0	0	507	
6	0	0	0	0	510	
7	0	0	0	0	523	
8	0	0	0	0	513	
9	0	0	0	0	518	
10	0	0	0	0	505	
11	0	0	0	0	502	
12	0	0	0	0	514	
13	0	0	0	0	516	
14	0	0	0	0	509	
15	0	0	0	0	514	
0	0	0	0	0	513	
1	0	0	0	0	511	
2	0	0	0	0	510	
3	0	0	0	0	511	
4	0	0	0	0	514	
5	0	0	0	0	508	
6	0	0	0	0	512	
7	0	0	0	0	515	
8	0	0	0	0	516	
9	0	0	0	0	509	
10	0	0	0	0	508	
11	0	0	0	0	505	
12	0	0	0	0	501	
13	0	0	0	0	503	
14	0	0	0	0	519	
15	0	0	0	0	524	
0	0	0	0	0	521	
1	0	0	0	0	515	
2	0	0	0	0	508	
3	0	0	0	0	508	
4	0	0	0	0	511	
5	0	0	0	0	505	
6	0	0	0	0	510	
7	0	0	0	0	517	
8	0	0	0	0	516	
9	0	0	0	0	515	
10	0	0	0	0	518	
11	0	0	0	0	515	
12	0	0	0	0	504	
13	0	0	0	0	513	
14	0	0	0	0	526	
15	0	0	0	0	518	
0	0	0	0	0	505	
1	0	0	0	0	497	
2	0	0	0	0	503	
3	0	0	0	0	513	
4	0	0	0	0	517	
5	0	0	0	0	513	
6	0	0	0	0	511	
7	0	0	0	0	518	
8	0	0	0	0	510	
9	0	0	0	0	505	
10	0	0	0	0	508	
11	0	0	0	0	504	
12	0	0	0	0	499	
13	0	0	0	0	512	
14	0	0	0	0	518	
15	0	0	0	0	518	
0	0	0	0	0	512	
1	0	0	0	0	513	
2	0	0	0	0	519	
3	0	0	0	0	519	
4	0	0	0	0	513	
5	0	0	0	0	513	
6	0	0	0	0	516	
7	0	0	0	0	513	
8	0	0	0	0	509	
9	0	0	0	0	511	
10	0	0	0	0	509	
11	0	0	0	0	504	
12	0	0	0	0	520	
13	0	0	0	0	524	
14	0	0	0	0	511	
15	0	0	0	0	504	
0	0	0	0	0	514	
1	0	0	0	0	507	
2	0	0	0	0	508	
3	0	0	0	0	517	
4	0	0	0	0	510	
5	0	0	0	0	508	
6	0	0	0	0	504	
7	0	0	0	0	506	
8	0	0	0	0	507	
9	0	0	0	0	504	
10	0	0	0	0	500	
11	0	0	0	0	516	
12	0	0	0	0	531	
13	0	0	0	0	527	
14	0	0	0	0	514	
15	0	0	0	0	509	
0	0	0	0	0	514	
1	0	0	0	0	508	
2	0	0	0	0	511	
3	0	0	0	0	510	
4	0	0	0	0	509	
5	0	0	0	0	514	
6	0	0	0	0	510	
7	0	0	0	0	512	
8	0	0	0	0	510	
9	0	0	0	0	512	
10	0	0	0	0	519	
11	0	0	0	0	518	
12	0	0	0	0	518	
13	0	0	0	0	514	
14	0	0	0	0	512	
15	0	0	0	0	511	
0	0	0	0	0	505	
1	0	0	0	0	501	
2	0	0	0	0	511	
3	0	0	0	0	515	
4	0	0	0	0	505	
5	0	0	0	0	504	
6	0	0	0	0	516	
7	0	0	0	0	522	
8	0	0	0	0	531	
9	0	0	0	0	527	
10	0	0	0	0	510	
11	0	0	0	0	505	
12	0	0	0	0	507	
13	0	0	0	0	505	
14	0	0	0	0	502	
15	0	0	0	0	509	
0	0	0	0	0	520	
1	0	0	0	0	511	
2	0	0	0	0	508	
3	0	0	0	0	511	
4	0	0	0	0	517	
5	0	0	0	0	510	
6	0	0	0	0	511	
7	0	0	0	0	512	
8	0	0	0	0	510	
9	0	0	0	0	510	
10	0	0	0	0	502	
11	0	0	0	0	503	
12	0	0	0	0	501	
13	0	0	0	0	507	
14	0	0	0	0	527	
15	0	0	0	0	526	
0	0	0	0	0	529	
1	0	0	0	0	523	
2	0	0	0	0	510	
3	0	0	0	0	512	
4	0	0	0	0	514	
5	0	0	0	0	515	
6	0	0	0	0	515	
7	0	0	0	0	512	
8	0	0	0	0	513	
9	0	0	0	0	511	
10	0	0	0	0	510	
11	0	0	0	0	512	
12	0	0	0	0	514	
13	0	0	0	0	513	
14	0	0	0	0	511	
15	0	0	0	0	509	
0	0	0	0	0	509	
1	0	0	0	0	508	
2	0	0	0	0	511	
3	0	0	0	0	510	
4	0	0	0	0	509	
5	0	0	0	0	509	
6	0	0	0	0	508	
7	0	0	0	0	509	
8	0	0	0	0	510	
9	0	0	0	0	506	
10	0	0	0	0	509	
11	0	0	0	0	514	
12	0	0	0	0	511	
13	0	0	0	0	505	
14	0	0	0	0	514	
15	0	0	0	0	513	
0	0	0	0	0	511	
1	0	0	0	0	512	
2	0	0	0	0	512	
3	0	0	0	0	512	
4	0	0	0	0	517	
5	0	0	0	0	513	
6	0	0	0	0	512	
7	0	0	0	0	510	
8	0	0	0	0	511	
9	0	0	0	0	508	
10	0	0	0	0	510	
11	0	0	0	0	510	
12	0	0	0	0	510	
13	0	0	0	0	513	
14	0	0	0	0	514	
15	0	0	0	0	511	
0	0	0	0	0	512	
1	0	0	0	0	510	
2	0	0	0	0	513	
3	0	0	0	0	513	
4	0	0	0	0	508	
5	0	0	0	0	508	
6	0	0	0	0	513	
7	0	0	0	0	519	
8	0	0	0	0	517	
9	0	0	0	0	514	
10	0	0	0	0	512	
11	0	0	0	0	510	
12	0	0	0	0	509	
13	0	0	0	0	511	
14	0	0	0	0	520	
15	0	0	0	0	511	
0	0	0	0	0	507	
1	0	0	0	0	518	
2	0	0	0	0	523	
3	0	0	0	0	510	
4	0	0	0	0	496	
5	0	0	0	0	501	
6	0	0	0	0	522	
7	0	0	0	0	540	
8	0	0	0	0	535	
9	0	0	0	0	524	
10	0	0	0	0	519	
11	0	0	0	0	509	
12	0	0	0	0	505	
13	0	0	0	0	509	
14	0	0	0	0	505	
15	0	0	0	0	503	
0	0	0	0	0	502	
1	0	0	0	0	505	
2	0	0	0	0	511	
3	0	0	0	0	518	
4	0	0	0	0	518	
5	0	0	0	0	502	
6	0	0	0	0	504	
7	0	0	0	0	519	
8	0	0	0	0	516	
9	0	0	0	0	516	
10	0	0	0	0	511	
11	0	0	0	0	507	
12	0	0	0	0	517	
13	0	0	0	0	515	
14	0	0	0	0	508	
15	0	0	0	0	502	
0	0	0	0	0	509	
1	0	0	0	0	505	
2	0	0	0	0	514	
3	0	0	0	0	513	
4	0	0	0	0	504	
5	0	0	0	0	507	
6	0	0	0	0	513	
7	0	0	0	0	521	
8	0	0	0	0	516	
9	0	0	0	0	517	
10	0	0	0	0	518	
11	0	0	0	0	513	
12	0	0	0	0	509	
13	0	0	0	0	507	
14	0	0	0	0	510	
15	0	0	0	0	515	
0	0	0	0	0	515	
1	0	0	0	0	511	
2	0	0	0	0	512	
3	0	0	0	0	511	
4	0	0	0	0	514	
5	0	0	0	0	512	
6	0	0	0	0	514	
7	0	0	0	0	513	
8	0	0	0	0	513	
9	0	0	0	0	511	
10	0	0	0	0	508	
11	0	0	0	0	508	
12	0	0	0	0	511	
13	0	0	0	0	509	
14	0	0	0	0	513	
15	0	0	0	0	514	
0	0	0	0	0	512	
1	0	0	0	0	509	
2	0	0	0	0	507	
3	0	0	0	0	505	
4	0	0	0	0	505	
5	0	0	0	0	504	
6	0	0	0	0	516	
7	0	0	0	0	518	
8	0	0	0	0	517	
9	0	0	0	0	515	
10	0	0	0	0	513	
11	0	0	0	0	510	
12	0	0	0	0	503	
13	0	0	0	0	505	
14	0	0	0	0	508	
15	0	0	0	0	514	
0	0	0	0	0	517	
1	0	0	0	0	508	
2	0	0	0	0	513	
3	0	0	0	0	519	
4	0	0	0	0	522	
5	0	0	0	0	526	
6	0	0	0	0	500	
7	0	0	0	0	503	
8	0	0	0	0	519	
9	0	0	0	0	509	
10	0	0	0	0	505	
11	0	0	0	0	509	
12	0	0	0	0	511	
13	0	0	0	0	506	
14	0	0	0	0	508	
15	0	0	0	0	522	
0	0	0	0	0	520	
1	0	0	0	0	507	
2	0	0	0	0	501	
3	0	0	0	0	499	
4	0	0	0	0	501	
5	0	0	0	0	510	
6	0	0	0	0	518	
7	0	0	0	0	525	
8	0	0	0	0	512	
9	0	0	0	0	514	
10	0	0	0	0	515	
11	0	0	0	0	512	
12	0	0	0	0	513	
13	0	0	0	0	511	
14	0	0	0	0	506	
15	0	0	0	0	508	
0	0	0	0	0	512	
1	0	0	0	0	513	
2	0	0	0	0	512	
3	0	0	0	0	513	
4	0	0	0	0	513	
5	0	0	0	0	509	
6	0	0	0	0	509	
7	0	0	0	0	512	
8	0	0	0	0	512	
9	0	0	0	0	513	
10	0	0	0	0	515	
11	0	0	0	0	513	
12	0	0	0	0	512	
13	0	0	0	0	516	
14	0	0	0	0	511	
15	0	0	0	0	508	
0	0	0	0	0	512	
1	0	0	0	0	518	
2	0	0	0	0	514	
3	0	0	0	0	510	
4	0	0	0	0	512	
5	0	0	0	0	511	
6	0	0	0	0	509	
7	0	0	0	0	508	
8	0	0	0	0	510	
9	0	0	0	0	512	
10	0	0	0	0	510	
11	0	0	0	0	511	
12	0	0	0	0	512	
13	0	0	0	0	515	
14	0	0	0	0	518	
15	0	0	0	0	516	
0	0	0	0	0	513	
1	0	0	0	0	513	
2	0	0	0	0	516	
3	0	0	0	0	516	
4	0	0	0	0	515	
5	0	0	0	0	512	
6	0	0	0	0	510	
7	0	0	0	0	507	
8	0	0	0	0	511	
9	0	0	0	0	513	
10	0	0	0	0	515	
11	0	0	0	0	514	
12	0	0	0	0	514	
13	0	0	0	0	513	
14	0	0	0	0	513	
15	0	0	0	0	515	
0	0	0	0	0	515	
1	0	0	0	0	512	
2	0	0	0	0	513	
3	0	0	0	0	513	
4	0	0	0	0	513	
5	0	0	0	0	513	
6	0	0	0	0	509	
7	0	0	0	0	508	
8	0	0	0	0	511	
9	0	0	0	0	509	
10	0	0	0	0	512	
11	0	0	0	0	511	
12	0	0	0	0	509	
13	0	0	0	0	511	
14	0	0	0	0	510	
15	0	0	0	0	511	
0	0	0	0	0	511	
1	0	0	0	0	511	
2	0	0	0	0	513	
3	0	0	0	0	514	
4	0	0	0	0	514	
5	0	0	0	0	516	
6	0	0	0	0	514	
7	0	0	0	0	514	
8	0	0	0	0	512	
9	0	0	0	0	512	
10	0	0	0	0	513	
11	0	0	0	0	512	
12	0	0	0	0	512	
13	0	0	0	0	510	
14	0	0	0	0	512	
15	0	0	0	0	509	
0	0	0	0	0	512	
1	0	0	0	0	512	
2	0	0	0	0	512	
3	0	0	0	0	513	
4	0	0	0	0	511	
5	0	0	0	0	512	
6	0	0	0	0	511	
7	0	0	0	0	509	
8	0	0	0	0	509	
9	0	0	0	0	509	
10	0	0	0	0	509	
11	0	0	0	0	511	
12	0	0	0	0	511	
13	0	0	0	0	508	
14	0	0	0	0	508	
15	0	0	0	0	508	
0	0	0	0	0	509	
1	0	0	0	0	511	
2	0	0	0	0	514	
3	0	0	0	0	513	
4	0	0	0	0	512	
5	0	0	0	0	513	
6	0	0	0	0	510	
7	0	0	0	0	509	
8	0	0	0	0	510	
9	0	0	0	0	504	
10	0	0	0	0	505	
11	0	0	0	0	518	
12	0	0	0	0	527	
13	0	0	0	0	528	
14	0	0	0	0	521	
15	0	0	0	0	515	
0	0	0	0	0	508	
1	0	0	0	0	504	
2	0	0	0	0	508	
3	0	0	0	0	515	
4	0	0	0	0	519	
5	0	0	0	0	512	
6	0	0	0	0	507	
7	0	0	0	0	509	
8	0	0	0	0	512	
9	0	0	0	0	510	
10	0	0	0	0	515	
11	0	0	0	0	514	
12	0	0	0	0	506	
13	0	0	0	0	508	
14	0	0	0	0	513	
15	0	0	0	0	512	
0	0	0	0	0	507	
1	0	0	0	0	497	
2	0	0	0	0	516	
3	0	0	0	0	530	
4	0	0	0	0	519	
5	0	0	0	0	509	
6	0	0	0	0	512	
7	0	0	0	0	513	
8	0	0	0	0	517	
9	0	0	0	0	514	
10	0	0	0	0	513	
11	0	0	0	0	507	
12	0	0	0	0	506	
13	0	0	0	0	506	
14	0	0	0	0	508	
15	0	0	0	0	508	
0	0	0	0	0	510	
1	0	0	0	0	516	
2	0	0	0	0	519	
3	0	0	0	0	516	
4	0	0	0	0	516	
5	0	0	0	0	511	
6	0	0	0	0	523	
7	0	0	0	0	526	
8	0	0	0	0	519	
9	0	0	0	0	509	
10	0	0	0	0	505	
11	0	0	0	0	504	
12	0	0	0	0	502	
13	0	0	0	0	503	
14	0	0	0	0	510	
15	0	0	0	0	516	
0	0	0	0	0	517	
1	0	0	0	0	507	
2	0	0	0	0	506	
3	0	0	0	0	512	
4	0	0	0	0	509	
5	0	0	0	0	511	
6	0	0	0	0	514	
7	0	0	0	0	514	
8	0	0	0	0	515	
9	0	0	0	0	509	
10	0	0	0	0	505	
11	0	0	0	0	506	
12	0	0	0	0	506	
13	0	0	0	0	510	
14	0	0	0	0	519	
15	0	0	0	0	521	
0	0	0	0	0	517	
1	0	0	0	0	512	
2	0	0	0	0	508	
3	0	0	0	0	510	
4	0	0	0	0	511	
5	0	0	0	0	506	
6	0	0	0	0	507	
7	0	0	0	0	510	
8	0	0	0	0	517	
9	0	0	0	0	515	
10	0	0	0	0	514	
11	0	0	0	0	508	
12	0	0	0	0	512	
13	0	0	0	0	508	
14	0	0	0	0	510	
15	0	0	0	0	512	
0	0	0	0	0	514	
1	0	0	0	0	512	
2	0	0	0	0	521	
3	0	0	0	0	524	
4	0	0	0	0	514	
5	0	0	0	0	509	
6	0	0	0	0	517	
7	0	0	0	0	520	
8	0	0	0	0	518	
9	0	0	0	0	511	
10	0	0	0	0	507	
11	0	0	0	0	505	
12	0	0	0	0	503	
13	0	0	0	0	506	
14	0	0	0	0	519	
15	0	0	0	0	514	
0	0	0	0	0	511	
1	0	0	0	0	513	
2	0	0	0	0	512	
3	0	0	0	0	510	
4	0	0	0	0	509	
5	0	0	0	0	507	
6	0	0	0	0	510	
7	0	0	0	0	511	
8	0	0	0	0	512	
9	0	0	0	0	504	
10	0	0	0	0	505	
11	0	0	0	0	502	
12	0	0	0	0	508	
13	0	0	0	0	520	
14	0	0	0	0	511	
15	0	0	0	0	508	
0	0	0	0	0	508	
1	0	0	0	0	508	
2	0	0	0	0	512	
3	0	0	0	0	511	
4	0	0	0	0	518	
5	0	0	0	0	515	
6	0	0	0	0	514	
7	0	0	0	0	512	
8	0	0	0	0	513	
9	0	0	0	0	507	
10	0	0	0	0	506	
11	0	0	0	0	512	
12	0	0	0	0	519	
13	0	0	0	0	507	
14	0	0	0	0	508	
15	0	0	0	0	516	
0	0	0	0	0	519	
1	0	0	0	0	509	
2	0	0	0	0	505	
3	0	0	0	0	509	
4	0	0	0	0	511	
5	0	0	0	0	518	
6	0	0	0	0	516	
7	0	0	0	0	516	
8	0	0	0	0	522	
9	0	0	0	0	519	
10	0	0	0	0	515	
11	0	0	0	0	512	
12	0	0	0	0	510	
13	0	0	0	0	511	
14	0	0	0	0	512	
15	0	0	0	0	511	
0	0	0	0	0	512	
1	0	0	0	0	513	
2	0	0	0	0	510	
3	0	0	0	0	510	
4	0	0	0	0	511	
5	0	0	0	0	508	
6	0	0	0	0	511	
7	0	0	0	0	512	
8	0	0	0	0	519	
9	0	0	0	0	515	
10	0	0	0	0	513	
11	0	0	0	0	509	
12	0	0	0	0	512	
13	0	0	0	0	512	
14	0	0	0	0	515	
15	0	0	0	0	515	
0	0	0	0	0	511	
1	0	0	0	0	509	
2	0	0	0	0	502	
3	0	0	0	0	505	
4	0	0	0	0	509	
5	0	0	0	0	514	
6	0	0	0	0	516	
7	0	0	0	0	513	
8	0	0	0	0	520	
9	0	0	0	0	516	
10	0	0	0	0	522	
11	0	0	0	0	522	
12	0	0	0	0	513	
13	0	0	0	0	507	
14	0	0	0	0	507	
15	0	0	0	0	505	
0	0	0	0	0	513	
1	0	0	0	0	513	
2	0	0	0	0	512	
3	0	0	0	0	512	
4	0	0	0	0	508	
5	0	0	0	0	508	
6	0	0	0	0	510	
7	0	0	0	0	508	
8	0	0	0	0	506	
9	0	0	0	0	506	
10	0	0	0	0	515	
11	0	0	0	0	515	
12	0	0	0	0	511	
13	0	0	0	0	511	
14	0	0	0	0	508	
15	0	0	0	0	513	
0	0	0	0	0	512	
1	0	0	0	0	508	
2	0	0	0	0	509	
3	0	0	0	0	509	
4	0	0	0	0	505	
5	0	0	0	0	507	
6	0	0	0	0	515	
7	0	0	0	0	511	
8	0	0	0	0	504	
9	0	0	0	0	512	
10	0	0	0	0	528	
11	0	0	0	0	527	
12	0	0	0	0	517	
13	0	0	0	0	513	
14	0	0	0	0	506	
15	0	0	0	0	506	
0	0	0	0	0	510	
1	0	0	0	0	509	
2	0	0	0	0	509	
3	0	0	0	0	515	
4	0	0	0	0	515	
5	0	0	0	0	509	
6	0	0	0	0	507	
7	0	0	0	0	506	
8	0	0	0	0	511	
9	0	0	0	0	514	
10	0	0	0	0	515	
11	0	0	0	0	510	
12	0	0	0	0	509	
13	0	0	0	0	514	
14	0	0	0	0	515	
15	0	0	0	0	511	
0	0	0	0	0	504	
1	0	0	0	0	515	
2	0	0	0	0	516	
3	0	0	0	0	510	
4	0	0	0	0	514	
5	0	0	0	0	513	
6	0	0	0	0	510	
7	0	0	0	0	510	
8	0	0	0	0	510	
9	0	0	0	0	509	
10	0	0	0	0	511	
11	0	0	0	0	514	
12	0	0	0	0	511	
13	0	0	0	0	512	
14	0	0	0	0	512	
15	0	0	0	0	514	
0	0	0	0	0	513	
1	0	0	0	0	513	
2	0	0	0	0	513	
3	0	0	0	0	513	
4	0	0	0	0	516	
5	0	0	0	0	511	
6	0	0	0	0	512	
7	0	0	0	0	511	
8	0	0	0	0	512	
9	0	0	0	0	509	
10	0	0	0	0	511	
11	0	0	0	0	526	
12	0	0	0	0	520	
13	0	0	0	0	512	
14	0	0	0	0	515	
15	0	0	0	0	511	
0	0	0	0	0	510	
1	0	0	0	0	508	
2	0	0	0	0	517	
3	0	0	0	0	521	
4	0	0	0	0	516	
5	0	0	0	0	509	
6	0	0	0	0	509	
7	0	0	0	0	515	
8	0	0	0	0	513	
9	0	0	0	0	505	
10	0	0	0	0	504	
11	0	0	0	0	512	
12	0	0	0	0	513	
13	0	0	0	0	514	
14	0	0	0	0	515	
15	0	0	0	0	512	
0	0	0	0	0	500	
1	0	0	0	0	511	
2	0	0	0	0	512	
3	0	0	0	0	507	
4	0	0	0	0	526	
5	0	0	0	0	524	
6	0	0	0	0	518	
7	0	0	0	0	512	
8	0	0	0	0	507	
9	0	0	0	0	510	
10	0	0	0	0	507	
11	0	0	0	0	508	
12	0	0	0	0	510	
13	0	0	0	0	505	
14	0	0	0	0	509	
15	0	0	0	0	519	
0	0	0	0	0	515	
1	0	0	0	0	511	
2	0	0	0	0	510	
3	0	0	0	0	509	
4	0	0	0	0	505	
5	0	0	0	0	511	
6	0	0	0	0	514	
7	0	0	0	0	519	
8	0	0	0	0	518	
9	0	0	0	0	511	
10	0	0	0	0	504	
11	0	0	0	0	505	
12	0	0	0	0	502	
13	0	0	0	0	512	
14	0	0	0	0	519	
15	0	0	0	0	513	
0	0	0	0	0	514	
1	0	0	0	0	515	
2	0	0	0	0	514	
3	0	0	0	0	517	
4	0	0	0	0	522	
5	0	0	0	0	514	
6	0	0	0	0	507	
7	0	0	0	0	513	
8	0	0	0	0	512	
9	0	0	0	0	512	
10	0	0	0	0	516	
11	0	0	0	0	512	
12	0	0	0	0	510	
13	0	0	0	0	508	
14	0	0	0	0	512	
15	0	0	0	0	507	
0	0	0	0	0	508	
1	0	0	0	0	507	
2	0	0	0	0	509	
3	0	0	0	0	504	
4	0	0	0	0	508	
5	0	0	0	0	520	
6	0	0	0	0	516	
7	0	0	0	0	515	
8	0	0	0	0	516	
9	0	0	0	0	514	
10	0	0	0	0	514	
11	0	0	0	0	518	
12	0	0	0	0	511	
13	0	0	0	0	506	
14	0	0	0	0	509	
15	0	0	0	0	507	
0	0	0	0	0	511	
1	0	0	0	0	508	
2	0	0	0	0	512	
3	0	0	0	0	510	
4	0	0	0	0	504	
5	0	0	0	0	509	
6	0	0	0	0	511	
7	0	0	0	0	512	
8	0	0	0	0	514	
9	0	0	0	0	511	
10	0	0	0	0	512	
11	0	0	0	0	515	
12	0	0	0	0	511	
13	0	0	0	0	513	
14	0	0	0	0	513	
15	0	0	0	0	509	
0	0	0	0	0	511	
1	0	0	0	0	513	
2	0	0	0	0	519	
3	0	0	0	0	513	
4	0	0	0	0	518	
5	0	0	0	0	523	
6	0	0	0	0	519	
7	0	0	0	0	516	
8	0	0	0	0	513	
9	0	0	0	0	511	
10	0	0	0	0	508	
11	0	0	0	0	508	
12	0	0	0	0	511	
13	0	0	0	0	512	
14	0	0	0	0	512	
15	0	0	0	0	514	
0	0	0	0	0	516	
1	0	0	0	0	509	
2	0	0	0	0	512	
3	0	0	0	0	511	
4	0	0	0	0	509	
5	0	0	0	0	510	
6	0	0	0	0	510	
7	0	0	0	0	510	
8	0	0	0	0	509	
9	0	0	0	0	508	
10	0	0	0	0	510	
11	0	0	0	0	509	
12	0	0	0	0	507	
13	0	0	0	0	508	
14	0	0	0	0	513	
15	0	0	0	0	513	
0	0	0	0	0	510	
1	0	0	0	0	514	
2	0	0	0	0	511	
3	0	0	0	0	519	
4	0	0	0	0	524	
5	0	0	0	0	514	
6	0	0	0	0	513	
7	0	0	0	0	518	
8	0	0	0	0	514	
9	0	0	0	0	513	
10	0	0	0	0	512	
11	0	0	0	0	509	
12	0	0	0	0	509	
13	0	0	0	0	508	
14	0	0	0	0	507	
15	0	0	0	0	509	
0	0	0	0	0	512	
1	0	0	0	0	507	
2	0	0	0	0	515	
3	0	0	0	0	515	
4	0	0	0	0	513	
5	0	0	0	0	507	
6	0	0	0	0	509	
7	0	0	0	0	516	
8	0	0	0	0	509	
9	0	0	0	0	504	
10	0	0	0	0	510	
11	0	0	0	0	521	
12	0	0	0	0	518	
13	0	0	0	0	516	
14	0	0	0	0	517	
15	0	0	0	0	513	
0	0	0	0	0	512	
1	0	0	0	0	516	
2	0	0	0	0	516	
3	0	0	0	0	508	
4	0	0	0	0	511	
5	0	0	0	0	510	
6	0	0	0	0	516	
7	0	0	0	0	516	
8	0	0	0	0	514	
9	0	0	0	0	511	
10	0	0	0	0	511	
11	0	0	0	0	508	
12	0	0	0	0	508	
13	0	0	0	0	510	
14	0	0	0	0	510	
15	0	0	0	0	506	
0	0	0	0	0	511	
1	0	0	0	0	524	
2	0	0	0	0	525	
3	0	0	0	0	509	
4	0	0	0	0	511	
5	0	0	0	0	509	
6	0	0	0	0	512	
7	0	0	0	0	501	
8	0	0	0	0	510	
9	0	0	0	0	515	
10	0	0	0	0	509	
11	0	0	0	0	511	
12	0	0	0	0	512	
13	0	0	0	0	509	
14	0	0	0	0	511	
15	0	0	0	0	512	
0	0	0	0	0	513	
1	0	0	0	0	512	
2	0	0	0	0	508	
3	0	0	0	0	504	
4	0	0	0	0	510	
5	0	0	0	0	510	
6	0	0	0	0	510	
7	0	0	0	0	511	
8	0	0	0	0	512	
9	0	0	0	0	510	
10	0	0	0	0	513	
11	0	0	0	0	511	
12	0	0	0	0	511	
13	0	0	0	0	513	
14	0	0	0	0	513	
15	0	0	0	0	515	
0	0	0	0	0	515	
1	0	0	0	0	518	
2	0	0	0	0	513	
3	0	0	0	0	515	
4	0	0	0	0	518	
5	0	0	0	0	512	
6	0	0	0	0	509	
7	0	0	0	0	514	
8	0	0	0	0	506	
9	0	0	0	0	505	
10	0	0	0	0	515	
11	0	0	0	0	516	
12	0	0	0	0	512	
13	0	0	0	0	512	
14	0	0	0	0	514	
15	0	0	0	0	514	
0	0	0	0	0	512	
1	0	0	0	0	509	
2	0	0	0	0	505	
3	0	0	0	0	512	
4	0	0	0	0	509	
5	0	0	0	0	513	
6	0	0	0	0	513	
7	0	0	0	0	513	
8	0	0	0	0	513	
9	0	0	0	0	510	
10	0	0	0	0	507	
11	0	0	0	0	515	
12	0	0	0	0	518	
13	0	0	0	0	511	
14	0	0	0	0	509	
15	0	0	0	0	508	
0	0	0	0	0	506	
1	0	0	0	0	510	
2	0	0	0	0	508	
3	0	0	0	0	507	
4	0	0	0	0	505	
5	0	0	0	0	515	
6	0	0	0	0	519	
7	0	0	0	0	517	
8	0	0	0	0	517	
9	0	0	0	0	516	
10	0	0	0	0	516	
11	0	0	0	0	497	
12	0	0	0	0	507	
13	0	0	0	0	523	
14	0	0	0	0	518	
15	0	0	0	0	513	
0	0	0	0	0	515	
1	0	0	0	0	510	
2	0	0	0	0	509	
3	0	0	0	0	511	
4	0	0	0	0	517	
5	0	0	0	0	514	
6	0	0	0	0	511	
7	0	0	0	0	507	
8	0	0	0	0	509	
9	0	0	0	0	520	
10	0	0	0	0	511	
11	0	0	0	0	508	
12	0	0	0	0	509	
13	0	0	0	0	506	
14	0	0	0	0	512	
15	0	0	0	0	513	
0	0	0	0	0	506	
1	0	0	0	0	504	
2	0	0	0	0	513	
3	0	0	0	0	514	
4	0	0	0	0	518	
5	0	0	0	0	517	
6	0	0	0	0	515	
7	0	0	0	0	512	
8	0	0	0	0	509	
9	0	0	0	0	504	
10	0	0	0	0	520	
11	0	0	0	0	521	
12	0	0	0	0	513	
13	0	0	0	0	510	
14	0	0	0	0	506	
15	0	0	0	0	515	
0	0	0	0	0	515	
1	0	0	0	0	510	
2	0	0	0	0	514	
3	0	0	0	0	518	
4	0	0	0	0	516	
5	0	0	0	0	516	
6	0	0	0	0	510	
7	0	0	0	0	512	
8	0	0	0	0	513	
9	0	0	0	0	511	
10	0	0	0	0	511	
11	0	0	0	0	504	
12	0	0	0	0	507	
13	0	0	0	0	507	
14	0	0	0	0	508	
15	0	0	0	0	513	
0	0	0	0	0	516	
1	0	0	0	0	520	
2	0	0	0	0	508	
3	0	0	0	0	510	
4	0	0	0	0	522	
5	0	0	0	0	515	
6	0	0	0	0	511	
7	0	0	0	0	512	
8	0	0	0	0	511	
9	0	0	0	0	507	
10	0	0	0	0	515	
11	0	0	0	0	512	
12	0	0	0	0	509	
13	0	0	0	0	508	
14	0	0	0	0	510	
15	0	0	0	0	511	
0	0	0	0	0	512	
1	0	0	0	0	515	
2	0	0	0	0	514	
3	0	0	0	0	511	
4	0	0	0	0	511	
5	0	0	0	0	510	
6	0	0	0	0	508	
7	0	0	0	0	511	
8	0	0	0	0	515	
9	0	0	0	0	513	
10	0	0	0	0	506	
11	0	0	0	0	512	
12	0	0	0	0	520	
13	0	0	0	0	517	
14	0	0	0	0	517	
15	0	0	0	0	510	
0	0	0	0	0	514	
1	0	0	0	0	511	
2	0	0	0	0	512	
3	0	0	0	0	507	
4	0	0	0	0	504	
5	0	0	0	0	507	
6	0	0	0	0	519	
7	0	0	0	0	512	
8	0	0	0	0	510	
9	0	0	0	0	514	
10	0	0	0	0	509	
11	0	0	0	0	504	
12	0	0	0	0	504	
13	0	0	0	0	499	
14	0	0	0	0	516	
15	0	0	0	0	526	
0	0	0	0	0	516	
1	0	0	0	0	515	
2	0	0	0	0	510	
3	0	0	0	0	512	
4	0	0	0	0	511	
5	0	0	0	0	514	
6	0	0	0	0	514	
7	0	0	0	0	514	
8	0	0	0	0	512	
9	0	0	0	0	508	
10	0	0	0	0	508	
11	0	0	0	0	508	
12	0	0	0	0	509	
13	0	0	0	0	512	
14	0	0	0	0	512	
15	0	0	0	0	512	
0	0	0	0	0	513	
1	0	0	0	0	518	
2	0	0	0	0	513	
3	0	0	0	0	509	
4	0	0	0	0	506	
5	0	0	0	0	505	
6	0	0	0	0	506	
7	0	0	0	0	520	
8	0	0	0	0	520	
9	0	0	0	0	508	
10	0	0	0	0	511	
11	0	0	0	0	510	
12	0	0	0	0	515	
13	0	0	0	0	515	
14	0	0	0	0	514	
15	0	0	0	0	510	
0	0	0	0	0	513	
1	0	0	0	0	512	
2	0	0	0	0	519	
3	0	0	0	0	515	
4	0	0	0	0	512	
5	0	0	0	0	512	
6	0	0	0	0	515	
7	0	0	0	0	512	
8	0	0	0	0	511	
9	0	0	0	0	511	
10	0	0	0	0	514	
11	0	0	0	0	507	
12	0	0	0	0	510	
13	0	0	0	0	511	
14	0	0	0	0	515	
15	0	0	0	0	507	
0	0	0	0	0	505	
1	0	0	0	0	506	
2	0	0	0	0	503	
3	0	0	0	0	513	
4	0	0	0	0	518	
5	0	0	0	0	512	
6	0	0	0	0	508	
7	0	0	0	0	509	
8	0	0	0	0	516	
9	0	0	0	0	513	
10	0	0	0	0	510	
11	0	0	0	0	512	
12	0	0	0	0	515	
13	0	0	0	0	518	
14	0	0	0	0	513	
15	0	0	0	0	506	
0	0	0	0	0	509	
1	0	0	0	0	515	
2	0	0	0	0	515	
3	0	0	0	0	511	
4	0	0	0	0	512	
5	0	0	0	0	510	
6	0	0	0	0	512	
7	0	0	0	0	505	
8	0	0	0	0	503	
9	0	0	0	0	511	
10	0	0	0	0	516	
11	0	0	0	0	513	
12	0	0	0	0	517	
13	0	0	0	0	517	
14	0	0	0	0	512	
15	0	0	0	0	510	
0	0	0	0	0	512	
1	0	0	0	0	509	
2	0	0	0	0	510	
3	0	0	0	0	510	
4	0	0	0	0	511	
5	0	0	0	0	513	
6	0	0	0	0	508	
7	0	0	0	0	509	
8	0	0	0	0	507	
9	0	0	0	0	511	
10	0	0	0	0	521	
11	0	0	0	0	515	
12	0	0	0	0	516	
13	0	0	0	0	511	
14	0	0	0	0	512	
15	0	0	0	0	513	
0	0	0	0	0	499	
1	0	0	0	0	511	
2	0	0	0	0	525	
3	0	0	0	0	518	
4	0	0	0	0	510	
5	0	0	0	0	508	
6	0	0	0	0	508	
7	0	0	0	0	513	
8	0	0	0	0	514	
9	0	0	0	0	510	
10	0	0	0	0	508	
11	0	0	0	0	509	
12	0	0	0	0	514	
13	0	0	0	0	510	
14	0	0	0	0	510	
15	0	0	0	0	510	
0	0	0	0	0	512	
1	0	0	0	0	511	
2	0	0	0	0	514	
3	0	0	0	0	505	
4	0	0	0	0	509	
5	0	0	0	0	517	
6	0	0	0	0	519	
7	0	0	0	0	518	
8	0	0	0	0	520	
9	0	0	0	0	512	
10	0	0	0	0	510	
11	0	0	0	0	513	
12	0	0	0	0	515	
13	0	0	0	0	512	
14	0	0	0	0	511	
15	0	0	0	0	512	
0	0	0	0	0	514	
1	0	0	0	0	510	
2	0	0	0	0	511	
3	0	0	0	0	508	
4	0	0	0	0	505	
5	0	0	0	0	512	
6	0	0	0	0	508	
7	0	0	0	0	512	
8	0	0	0	0	508	
9	0	0	0	0	510	
10	0	0	0	0	515	
11	0	0	0	0	511	
12	0	0	0	0	512	
13	0	0	0	0	511	
14	0	0	0	0	512	
15	0	0	0	0	505	
0	0	0	0	0	507	
1	0	0	0	0	516	
2	0	0	0	0	515	
3	0	0	0	0	516	
4	0	0	0	0	518	
5	0	0	0	0	506	
6	0	0	0	0	504	
7	0	0	0	0	514	
8	0	0	0	0	512	
9	0	0	0	0	513	
10	0	0	0	0	514	
11	0	0	0	0	521	
12	0	0	0	0	514	
13	0	0	0	0	508	
14	0	0	0	0	507	
15	0	0	0	0	508	
0	0	0	0	0	515	
1	0	0	0	0	515	
2	0	0	0	0	512	
3	0	0	0	0	511	
4	0	0	0	0	511	
5	0	0	0	0	511	
6	0	0	0	0	513	
7	0	0	0	0	511	
8	0	0	0	0	511	
9	0	0	0	0	509	
10	0	0	0	0	512	
11	0	0	0	0	510	
12	0	0	0	0	511	
13	0	0	0	0	511	
14	0	0	0	0	511	
15	0	0	0	0	514	
0	0	0	0	0	515	
1	0	0	0	0	512	
2	0	0	0	0	516	
3	0	0	0	0	515	
4	0	0	0	0	515	
5	0	0	0	0	512	
6	0	0	0	0	515	
7	0	0	0	0	511	
8	0	0	0	0	510	
9	0	0	0	0	505	
10	0	0	0	0	512	
11	0	0	0	0	519	
12	0	0	0	0	513	
13	0	0	0	0	513	
14	0	0	0	0	517	
15	0	0	0	0	516	
0	0	0	0	0	510	
1	0	0	0	0	508	
2	0	0	0	0	511	
3	0	0	0	0	512	
4	0	0	0	0	511	
5	0	0	0	0	510	
6	0	0	0	0	512	
7	0	0	0	0	511	
8	0	0	0	0	511	
9	0	0	0	0	509	
10	0	0	0	0	510	
11	0	0	0	0	509	
12	0	0	0	0	509	
13	0	0	0	0	509	
14	0	0	0	0	507	
15	0	0	0	0	508	
0	0	0	0	0	510	
1	0	0	0	0	511	
2	0	0	0	0	508	
3	0	0	0	0	513	
4	0	0	0	0	519	
5	0	0	0	0	513	
6	0	0	0	0	511	
7	0	0	0	0	511	
8	0	0	0	0	515	
9	0	0	0	0	514	
10	0	0	0	0	512	
11	0	0	0	0	513	
12	0	0	0	0	519	
13	0	0	0	0	519	
14	0	0	0	0	519	
15	0	0	0	0	516	
0	0	0	0	0	504	
1	0	0	0	0	505	
2	0	0	0	0	506	
3	0	0	0	0	519	
4	0	0	0	0	527	
5	0	0	0	0	517	
6	0	0	0	0	507	
7	0	0	0	0	509	
8	0	0	0	0	509	
9	0	0	0	0	509	
10	0	0	0	0	506	
11	0	0	0	0	503	
12	0	0	0	0	514	
13	0	0	0	0	512	
14	0	0	0	0	510	
15	0	0	0	0	514	
0	0	0	0	0	518	
1	0	0	0	0	514	
2	0	0	0	0	512	
3	0	0	0	0	510	
4	0	0	0	0	508	
5	0	0	0	0	510	
6	0	0	0	0	512	
7	0	0	0	0	509	
8	0	0	0	0	513	
9	0	0	0	0	508	
10	0	0	0	0	508	
11	0	0	0	0	510	
12	0	0	0	0	515	
13	0	0	0	0	513	
14	0	0	0	0	513	
15	0	0	0	0	517	
0	0	0	0	0	521	
1	0	0	0	0	520	
2	0	0	0	0	513	
3	0	0	0	0	510	
4	0	0	0	0	515	
5	0	0	0	0	510	
6	0	0	0	0	507	
7	0	0	0	0	508	
8	0	0	0	0	510	
9	0	0	0	0	513	
10	0	0	0	0	513	
11	0	0	0	0	513	
12	0	0	0	0	510	
13	0	0	0	0	510	
14	0	0	0	0	507	
15	0	0	0	0	510	
0	0	0	0	0	506	
1	0	0	0	0	503	
2	0	0	0	0	509	
3	0	0	0	0	515	
4	0	0	0	0	517	
5	0	0	0	0	513	
6	0	0	0	0	508	
7	0	0	0	0	513	
8	0	0	0	0	517	
9	0	0	0	0	513	
10	0	0	0	0	511	
11	0	0	0	0	511	
12	0	0	0	0	507	
13	0	0	0	0	508	
14	0	0	0	0	515	
15	0	0	0	0	515	
0	0	0	0	0	514	
1	0	0	0	0	511	
2	0	0	0	0	509	
3	0	0	0	0	509	
4	0	0	0	0	513	
5	0	0	0	0	515	
6	0	0	0	0	508	
7	0	0	0	0	505	
8	0	0	0	0	515	
9	0	0	0	0	516	
10	0	0	0	0	519	
11	0	0	0	0	516	
12	0	0	0	0	514	
13	0	0	0	0	511	
14	0	0	0	0	521	
15	0	0	0	0	516	
0	0	0	0	0	512	
1	0	0	0	0	508	
2	0	0	0	0	506	
3	0	0	0	0	508	
4	0	0	0	0	513	
5	0	0	0	0	511	
6	0	0	0	0	510	
7	0	0	0	0	507	
8	0	0	0	0	511	
9	0	0	0	0	511	
10	0	0	0	0	509	
11	0	0	0	0	511	
12	0	0	0	0	514	
13	0	0	0	0	512	
14	0	0	0	0	514	
15	0	0	0	0	512	
0	0	0	0	0	510	
1	0	0	0	0	510	
2	0	0	0	0	508	
3	0	0	0	0	511	
4	0	0	0	0	510	
5	0	0	0	0	514	
6	0	0	0	0	510	
7	0	0	0	0	511	
8	0	0	0	0	510	
9	0	0	0	0	514	
10	0	0	0	0	518	
11	0	0	0	0	516	
12	0	0	0	0	506	
13	0	0	0	0	513	
14	0	0	0	0	518	
15	0	0	0	0	511	
0	0	0	0	0	509	
1	0	0	0	0	510	
2	0	0	0	0	513	
3	0	0	0	0	511	
4	0	0	0	0	510	
5	0	0	0	0	512	
6	0	0	0	0	512	
7	0	0	0	0	505	
8	0	0	0	0	506	
9	0	0	0	0	508	
10	0	0	0	0	513	
11	0	0	0	0	511	
12	0	0	0	0	509	
13	0	0	0	0	518	
14	0	0	0	0	515	
15	0	0	0	0	513	
0	0	0	0	0	512	
1	0	0	0	0	513	
2	0	0	0	0	512	
3	0	0	0	0	507	
4	0	0	0	0	510	
5	0	0	0	0	509	
6	0	0	0	0	508	
7	0	0	0	0	515	
8	0	0	0	0	515	
9	0	0	0	0	512	
10	0	0	0	0	509	
11	0	0	0	0	516	
12	0	0	0	0	510	
13	0	0	0	0	511	
14	0	0	0	0	515	
15	0	0	0	0	513	
0	0	0	0	0	511	
1	0	0	0	0	511	
2	0	0	0	0	513	
3	0	0	0	0	508	
4	0	0	0	0	501	
5	0	0	0	0	513	
6	0	0	0	0	522	
7	0	0	0	0	511	
8	0	0	0	0	517	
9	0	0	0	0	525	
10	0	0	0	0	515	
11	0	0	0	0	511	
12	0	0	0	0	512	
13	0	0	0	0	510	
14	0	0	0	0	509	
15	0	0	0	0	509	
0	0	0	0	0	510	
1	0	0	0	0	506	
2	0	0	0	0	505	
3	0	0	0	0	517	
4	0	0	0	0	520	
5	0	0	0	0	514	
6	0	0	0	0	514	
7	0	0	0	0	518	
8	0	0	0	0	511	
9	0	0	0	0	509	
10	0	0	0	0	506	
11	0	0	0	0	514	
12	0	0	0	0	514	
13	0	0	0	0	508	
14	0	0	0	0	512	
15	0	0	0	0	509	
0	0	0	0	0	508	
1	0	0	0	0	509	
2	0	0	0	0	509	
3	0	0	0	0	514	
4	0	0	0	0	512	
5	0	0	0	0	504	
6	0	0	0	0	509	
7	0	0	0	0	515	
8	0	0	0	0	521	
9	0	0	0	0	525	
10	0	0	0	0	520	
11	0	0	0	0	514	
12	0	0	0	0	511	
13	0	0	0	0	514	
14	0	0	0	0	507	
15	0	0	0	0	515	
0	0	0	0	0	515	
1	0	0	0	0	512	
2	0	0	0	0	511	
3	0	0	0	0	512	
4	0	0	0	0	509	
5	0	0	0	0	507	
6	0	0	0	0	507	
7	0	0	0	0	508	
8	0	0	0	0	511	
9	0	0	0	0	512	
10	0	0	0	0	510	
11	0	0	0	0	510	
12	0	0	0	0	510	
13	0	0	0	0	511	
14	0	0	0	0	514	
15	0	0	0	0	512	
0	0	0	0	0	513	
1	0	0	0	0	511	
2	0	0	0	0	509	
3	0	0	0	0	511	
4	0	0	0	0	515	
5	0	0	0	0	511	
6	0	0	0	0	510	
7	0	0	0	0	510	
8	0	0	0	0	513	
9	0	0	0	0	514	
10	0	0	0	0	512	
11	0	0	0	0	513	
12	0	0	0	0	517	
13	0	0	0	0	514	
14	0	0	0	0	509	
15	0	0	0	0	510	
0	0	0	0	0	507	
1	0	0	0	0	509	
2	0	0	0	0	510	
3	0	0	0	0	504	
4	0	0	0	0	511	
5	0	0	0	0	518	
6	0	0	0	0	517	
7	0	0	0	0	513	
8	0	0	0	0	520	
9	0	0	0	0	525	
10	0	0	0	0	524	
11	0	0	0	0	516	
12	0	0	0	0	512	
13	0	0	0	0	513	
14	0	0	0	0	506	
15	0	0	0	0	501	
0	0	0	0	0	510	
1	0	0	0	0	513	
2	0	0	0	0	515	
3	0	0	0	0	512	
4	0	0	0	0	513	
5	0	0	0	0	510	
6	0	0	0	0	508	
7	0	0	0	0	509	
8	0	0	0	0	513	
9	0	0	0	0	506	
10	0	0	0	0	512	
11	0	0	0	0	515	
12	0	0	0	0	514	
13	0	0	0	0	511	
14	0	0	0	0	516	
15	0	0	0	0	513	
0	0	0	0	0	506	
1	0	0	0	0	513	
2	0	0	0	0	516	
3	0	0	0	0	501	
4	0	0	0	0	515	
5	0	0	0	0	523	
6	0	0	0	0	523	
7	0	0	0	0	511	
8	0	0	0	0	514	
9	0	0	0	0	512	
10	0	0	0	0	509	
11	0	0	0	0	505	
12	0	0	0	0	509	
13	0	0	0	0	511	
14	0	0	0	0	508	
15	0	0	0	0	511	
0	0	0	0	0	508	
1	0	0	0	0	511	
2	0	0	0	0	513	
3	0	0	0	0	511	
4	0	0	0	0	512	
5	0	0	0	0	509	
6	0	0	0	0	507	
7	0	0	0	0	511	
8	0	0	0	0	509	
9	0	0	0	0	512	
10	0	0	0	0	515	
11	0	0	0	0	511	
12	0	0	0	0	512	
13	0	0	0	0	508	
14	0	0	0	0	506	
15	0	0	0	0	513	
0	0	0	0	0	513	
1	0	0	0	0	512	
2	0	0	0	0	513	
3	0	0	0	0	513	
4	0	0	0	0	513	
5	0	0	0	0	518	
6	0	0	0	0	518	
7	0	0	0	0	514	
8	0	0	0	0	513	
9	0	0	0	0	511	
10	0	0	0	0	503	
11	0	0	0	0	507	
12	0	0	0	0	507	
13	0	0	0	0	518	
14	0	0	0	0	519	
15	0	0	0	0	511	
0	0	0	0	0	507	
1	0	0	0	0	511	
2	0	0	0	0	516	
3	0	0	0	0	521	
4	0	0	0	0	516	
5	0	0	0	0	515	
6	0	0	0	0	511	
7	0	0	0	0	509	
8	0	0	0	0	511	
9	0	0	0	0	510	
10	0	0	0	0	511	
11	0	0	0	0	510	
12	0	0	0	0	511	
13	0	0	0	0	511	
14	0	0	0	0	507	
15	0	0	0	0	505	
0	0	0	0	0	509	
1	0	0	0	0	513	
2	0	0	0	0	512	
3	0	0	0	0	511	
4	0	0	0	0	511	
5	0	0	0	0	508	
6	0	0	0	0	508	
7	0	0	0	0	514	
8	0	0	0	0	515	
9	0	0	0	0	514	
10	0	0	0	0	513	
11	0	0	0	0	512	
12	0	0	0	0	513	
13	0	0	0	0	514	
14	0	0	0	0	509	
15	0	0	0	0	504	
0	0	0	0	0	515	
1	0	0	0	0	515	
2	0	0	0	0	516	
3	0	0	0	0	511	
4	0	0	0	0	511	
5	0	0	0	0	515	
6	0	0	0	0	510	
7	0	0	0	0	515	
8	0	0	0	0	514	
9	0	0	0	0	510	
10	0	0	0	0	513	
11	0	0	0	0	508	
12	0	0	0	0	516	
13	0	0	0	0	515	
14	0	0	0	0	517	
15	0	0	0	0	512	
0	0	0	0	0	510	
1	0	0	0	0	515	
2	0	0	0	0	511	
3	0	0	0	0	510	
4	0	0	0	0	513	
5	0	0	0	0	507	
6	0	0	0	0	507	
7	0	0	0	0	511	
8	0	0	0	0	515	
9	0	0	0	0	515	
10	0	0	0	0	516	
11	0	0	0	0	511	
12	0	0	0	0	509	
13	0	0	0	0	508	
14	0	0	0	0	516	
15	0	0	0	0	516	
0	0	0	0	0	512	
1	0	0	0	0	514	
2	0	0	0	0	515	
3	0	0	0	0	511	
4	0	0	0	0	508	
5	0	0	0	0	510	
6	0	0	0	0	511	
7	0	0	0	0	513	
8	0	0	0	0	511	
9	0	0	0	0	507	
10	0	0	0	0	507	
11	0	0	0	0	511	
12	0	0	0	0	514	
13	0	0	0	0	510	
14	0	0	0	0	512	
15	0	0	0	0	512	
0	0	0	0	0	512	
1	0	0	0	0	509	
2	0	0	0	0	511	
3	0	0	0	0	511	
4	0	0	0	0	512	
5	0	0	0	0	505	
6	0	0	0	0	515	
7	0	0	0	0	512	
8	0	0	0	0	494	
9	0	0	0	0	507	
10	0	0	0	0	534	
11	0	0	0	0	529	
12	0	0	0	0	519	
13	0	0	0	0	512	
14	0	0	0	0	513	
15	0	0	0	0	513	
0	0	0	0	0	505	
1	0	0	0	0	504	
2	0	0	0	0	507	
3	0	0	0	0	505	
4	0	0	0	0	507	
5	0	0	0	0	512	
6	0	0	0	0	514	
7	0	0	0	0	510	
8	0	0	0	0	510	
9	0	0	0	0	514	
10	0	0	0	0	515	
11	0	0	0	0	514	
12	0	0	0	0	511	
13	0	0	0	0	507	
14	0	0	0	0	513	
15	0	0	0	0	510	
0	0	0	0	0	511	
1	0	0	0	0	511	
2	0	0	0	0	511	
3	0	0	0	0	512	
4	0	0	0	0	515	
5	0	0	0	0	515	
6	0	0	0	0	508	
7	0	0	0	0	507	
8	0	0	0	0	513	
9	0	0	0	0	517	
10	0	0	0	0	512	
11	0	0	0	0	512	
12	0	0	0	0	509	
13	0	0	0	0	511	
14	0	0	0	0	507	
15	0	0	0	0	512	
0	0	0	0	0	509	
1	0	0	0	0	530	
2	0	0	0	0	527	
3	0	0	0	0	523	
4	0	0	0	0	517	
5	0	0	0	0	511	
6	0	0	0	0	508	
7	0	0	0	0	504	
8	0	0	0	0	505	
9	0	0	0	0	505	
10	0	0	0	0	513	
11	0	0	0	0	514	
12	0	0	0	0	513	
13	0	0	0	0	512	
14	0	0	0	0	513	
15	0	0	0	0	511	
0	0	0	0	0	510	
1	0	0	0	0	513	
2	0	0	0	0	512	
3	0	0	0	0	510	
4	0	0	0	0	509	
5	0	0	0	0	508	
6	0	0	0	0	508	
7	0	0	0	0	504	
8	0	0	0	0	506	
9	0	0	0	0	511	
10	0	0	0	0	516	
11	0	0	0	0	513	
12	0	0	0	0	514	
13	0	0	0	0	519	
14	0	0	0	0	521	
15	0	0	0	0	508	
0	0	0	0	0	501	
1	0	0	0	0	509	
2	0	0	0	0	514	
3	0	0	0	0	520	
4	0	0	0	0	523	
5	0	0	0	0	513	
6	0	0	0	0	510	
7	0	0	0	0	510	
8	0	0	0	0	507	
9	0	0	0	0	506	
10	0	0	0	0	511	
11	0	0	0	0	510	
12	0	0	0	0	510	
13	0	0	0	0	507	
14	0	0	0	0	511	
15	0	0	0	0	516	
0	0	0	0	0	508	
1	0	0	0	0	510	
2	0	0	0	0	508	
3	0	0	0	0	508	
4	0	0	0	0	509	
5	0	0	0	0	510	
6	0	0	0	0	516	
7	0	0	0	0	514	
8	0	0	0	0	512	
9	0	0	0	0	509	
10	0	0	0	0	510	
11	0	0	0	0	505	
12	0	0	0	0	513	
13	0	0	0	0	514	
14	0	0	0	0	510	
15	0	0	0	0	515	
0	0	0	0	0	519	
1	0	0	0	0	513	
2	0	0	0	0	515	
3	0	0	0	0	515	
4	0	0	0	0	508	
5	0	0	0	0	501	
6	0	0	0	0	513	
7	0	0	0	0	518	
8	0	0	0	0	514	
9	0	0	0	0	512	
10	0	0	0	0	512	
11	0	0	0	0	511	
12	0	0	0	0	511	
13	0	0	0	0	512	
14	0	0	0	0	513	
15	0	0	0	0	510	
0	0	0	0	0	511	
1	0	0	0	0	506	
2	0	0	0	0	509	
3	0	0	0	0	518	
4	0	0	0	0	517	
5	0	0	0	0	512	
6	0	0	0	0	515	
7	0	0	0	0	511	
8	0	0	0	0	511	
9	0	0	0	0	509	
10	0	0	0	0	510	
11	0	0	0	0	516	
12	0	0	0	0	517	
13	0	0	0	0	513	
14	0	0	0	0	510	
15	0	0	0	0	514	
0	0	0	0	0	514	
1	0	0	0	0	508	
2	0	0	0	0	512	
3	0	0	0	0	520	
4	0	0	0	0	517	
5	0	0	0	0	514	
6	0	0	0	0	509	
7	0	0	0	0	505	
8	0	0	0	0	513	
9	0	0	0	0	515	
10	0	0	0	0	514	
11	0	0	0	0	510	
12	0	0	0	0	508	
13	0	0	0	0	503	
14	0	0	0	0	510	
15	0	0	0	0	513	
0	0	0	0	0	512	
1	0	0	0	0	507	
2	0	0	0	0	509	
3	0	0	0	0	510	
4	0	0	0	0	515	
5	0	0	0	0	515	
6	0	0	0	0	511	
7	0	0	0	0	507	
8	0	0	0	0	516	
9	0	0	0	0	515	
10	0	0	0	0	508	
11	0	0	0	0	510	
12	0	0	0	0	513	
13	0	0	0	0	511	
14	0	0	0	0	505	
15	0	0	0	0	513	
0	0	0	0	0	512	
1	0	0	0	0	514	
2	0	0	0	0	514	
3	0	0	0	0	513	
4	0	0	0	0	513	
5	0	0	0	0	512	
6	0	0	0	0	515	
7	0	0	0	0	516	
8	0	0	0	0	514	
9	0	0	0	0	511	
10	0	0	0	0	509	
11	0	0	0	0	507	
12	0	0	0	0	509	
13	0	0	0	0	511	
14	0	0	0	0	513	
15	0	0	0	0	515	
0	0	0	0	0	513	
1	0	0	0	0	509	
2	0	0	0	0	512	
3	0	0	0	0	517	
4	0	0	0	0	512	
5	0	0	0	0	511	
6	0	0	0	0	501	
7	0	0	0	0	503	
8	0	0	0	0	504	
9	0	0	0	0	502	
10	0	0	0	0	522	
11	0	0	0	0	520	
12	0	0	0	0	516	
13	0	0	0	0	513	
14	0	0	0	0	510	
15	0	0	0	0	512	
0	0	0	0	0	517	
1	0	0	0	0	513	
2	0	0	0	0	510	
3	0	0	0	0	507	
4	0	0	0	0	507	
5	0	0	0	0	510	
6	0	0	0	0	511	
7	0	0	0	0	507	
8	0	0	0	0	516	
9	0	0	0	0	529	
10	0	0	0	0	517	
11	0	0	0	0	505	
12	0	0	0	0	515	
13	0	0	0	0	517	
14	0	0	0	0	507	
15	0	0	0	0	501	
0	0	0	0	0	512	
1	0	0	0	0	511	
2	0	0	0	0	519	
3	0	0	0	0	521	
4	0	0	0	0	512	
5	0	0	0	0	511	
6	0	0	0	0	515	
7	0	0	0	0	516	
8	0	0	0	0	510	
9	0	0	0	0	506	
10	0	0	0	0	508	
11	0	0	0	0	514	
12	0	0	0	0	519	
13	0	0	0	0	519	
14	0	0	0	0	513	
15	0	0	0	0	514	
0	0	0	0	0	511	
1	0	0	0	0	511	
2	0	0	0	0	514	
3	0	0	0	0	507	
4	0	0	0	0	512	
5	0	0	0	0	512	
6	0	0	0	0	510	
7	0	0	0	0	508	
8	0	0	0	0	511	
9	0	0	0	0	504	
10	0	0	0	0	511	
11	0	0	0	0	514	
12	0	0	0	0	513	
13	0	0	0	0	511	
14	0	0	0	0	511	
15	0	0	0	0	511	
0	0	0	0	0	510	
1	0	0	0	0	513	
2	0	0	0	0	519	
3	0	0	0	0	518	
4	0	0	0	0	516	
5	0	0	0	0	513	
6	0	0	0	0	517	
7	0	0	0	0	511	
8	0	0	0	0	501	
9	0	0	0	0	507	
10	0	0	0	0	517	
11	0	0	0	0	514	
12	0	0	0	0	516	
13	0	0	0	0	517	
14	0	0	0	0	515	
15	0	0	0	0	513	
0	0	0	0	0	511	
1	0	0	0	0	510	
2	0	0	0	0	510	
3	0	0	0	0	504	
4	0	0	0	0	508	
5	0	0	0	0	510	
6	0	0	0	0	512	
7	0	0	0	0	510	
8	0	0	0	0	511	
9	0	0	0	0	504	
10	0	0	0	0	511	
11	0	0	0	0	512	
12	0	0	0	0	507	
13	0	0	0	0	509	
14	0	0	0	0	507	
15	0	0	0	0	513	
0	0	0	0	0	512	
1	0	0	0	0	510	
2	0	0	0	0	507	
3	0	0	0	0	507	
4	0	0	0	0	520	
5	0	0	0	0	524	
6	0	0	0	0	521	
7	0	0	0	0	518	
8	0	0	0	0	516	
9	0	0	0	0	509	
10	0	0	0	0	513	
11	0	0	0	0	514	
12	0	0	0	0	505	
13	0	0	0	0	500	
14	0	0	0	0	514	
15	0	0	0	0	514	
0	0	0	0	0	515	
1	0	0	0	0	510	
2	0	0	0	0	508	
3	0	0	0	0	512	
4	0	0	0	0	514	
5	0	0	0	0	512	
6	0	0	0	0	508	
7	0	0	0	0	510	
8	0	0	0	0	512	
9	0	0	0	0	510	
10	0	0	0	0	512	
11	0	0	0	0	515	
12	0	0	0	0	519	
13	0	0	0	0	508	
14	0	0	0	0	511	
15	0	0	0	0	513	
0	0	0	0	0	511	
1	0	0	0	0	515	
2	0	0	0	0	507	
3	0	0	0	0	515	
4	0	0	0	0	519	
5	0	0	0	0	511	
6	0	0	0	0	509	
7	0	0	0	0	515	
8	0	0	0	0	523	
9	0	0	0	0	519	
10	0	0	0	0	512	
11	0	0	0	0	510	
12	0	0	0	0	513	
13	0	0	0	0	511	
14	0	0	0	0	512	
15	0	0	0	0	512	
0	0	0	0	0	515	
1	0	0	0	0	508	
2	0	0	0	0	512	
3	0	0	0	0	512	
4	0	0	0	0	510	
5	0	0	0	0	511	
6	0	0	0	0	511	
7	0	0	0	0	509	
8	0	0	0	0	507	
9	0	0	0	0	507	
10	0	0	0	0	512	
11	0	0	0	0	517	
12	0	0	0	0	513	
13	0	0	0	0	509	
14	0	0	0	0	510	
15	0	0	0	0	506	
0	0	0	0	0	512	
1	0	0	0	0	513	
2	0	0	0	0	512	
3	0	0	0	0	517	
4	0	0	0	0	517	
5	0	0	0	0	515	
6	0	0	0	0	510	
7	0	0	0	0	512	
8	0	0	0	0	514	
9	0	0	0	0	513	
10	0	0	0	0	505	
11	0	0	0	0	500	
12	0	0	0	0	513	
13	0	0	0	0	509	
14	0	0	0	0	515	
15	0	0	0	0	514	
0	0	0	0	0	512	
1	0	0	0	0	511	
2	0	0	0	0	513	
3	0	0	0	0	514	
4	0	0	0	0	510	
5	0	0	0	0	512	
6	0	0	0	0	513	
7	0	0	0	0	504	
8	0	0	0	0	503	
9	0	0	0	0	520	
10	0	0	0	0	518	
11	0	0	0	0	511	
12	0	0	0	0	516	
13	0	0	0	0	517	
14	0	0	0	0	508	
15	0	0	0	0	511	
0	0	0	0	0	513	
1	0	0	0	0	513	
2	0	0	0	0	512	
3	0	0	0	0	514	
4	0	0	0	0	511	
5	0	0	0	0	510	
6	0	0	0	0	514	
7	0	0	0	0	515	
8	0	0	0	0	513	
9	0	0	0	0	513	
10	0	0	0	0	511	
11	0	0	0	0	515	
12	0	0	0	0	510	
13	0	0	0	0	505	
14	0	0	0	0	518	
15	0	0	0	0	512	
0	0	0	0	0	511	
1	0	0	0	0	505	
2	0	0	0	0	510	
3	0	0	0	0	508	
4	0	0	0	0	506	
5	0	0	0	0	512	
6	0	0	0	0	512	
7	0	0	0	0	512	
8	0	0	0	0	514	
9	0	0	0	0	503	
10	0	0	0	0	504	
11	0	0	0	0	516	
12	0	0	0	0	514	
13	0	0	0	0	511	
14	0	0	0	0	516	
15	0	0	0	0	513	
0	0	0	0	0	515	
1	0	0	0	0	519	
2	0	0	0	0	515	
3	0	0	0	0	509	
4	0	0	0	0	510	
5	0	0	0	0	509	
6	0	0	0	0	512	
7	0	0	0	0	513	
8	0	0	0	0	515	
9	0	0	0	0	509	
10	0	0	0	0	508	
11	0	0	0	0	505	
12	0	0	0	0	513	
13	0	0	0	0	517	
14	0	0	0	0	518	
15	0	0	0	0	511	
0	0	0	0	0	506	
1	0	0	0	0	512	
2	0	0	0	0	513	
3	0	0	0	0	512	
4	0	0	0	0	512	
5	0	0	0	0	511	
6	0	0	0	0	509	
7	0	0	0	0	512	
8	0	0	0	0	512	
9	0	0	0	0	512	
10	0	0	0	0	512	
11	0	0	0	0	512	
12	0	0	0	0	510	
13	0	0	0	0	510	
14	0	0	0	0	516	
15	0	0	0	0	516	
0	0	0	0	0	519	
1	0	0	0	0	516	
2	0	0	0	0	510	
3	0	0	0	0	507	
4	0	0	0	0	513	
5	0	0	0	0	519	
6	0	0	0	0	504	
7	0	0	0	0	508	
8	0	0	0	0	518	
9	0	0	0	0	519	
10	0	0	0	0	519	
11	0	0	0	0	514	
12	0	0	0	0	513	
13	0	0	0	0	512	
14	0	0	0	0	507	
15	0	0	0	0	518	
0	0	0	0	0	508	
1	0	0	0	0	511	
2	0	0	0	0	513	
3	0	0	0	0	508	
4	0	0	0	0	509	
5	0	0	0	0	507	
6	0	0	0	0	505	
7	0	0	0	0	509	
8	0	0	0	0	510	
9	0	0	0	0	513	
10	0	0	0	0	519	
11	0	0	0	0	515	
12	0	0	0	0	508	
13	0	0	0	0	517	
14	0	0	0	0	513	
15	0	0	0	0	500	
0	0	0	0	0	502	
1	0	0	0	0	508	
2	0	0	0	0	516	
3	0	0	0	0	514	
4	0	0	0	0	518	
5	0	0	0	0	516	
6	0	0	0	0	511	
7	0	0	0	0	511	
8	0	0	0	0	506	
9	0	0	0	0	508	
10	0	0	0	0	509	
11	0	0	0	0	512	
12	0	0	0	0	516	
13	0	0	0	0	514	
14	0	0	0	0	513	
15	0	0	0	0	515	
0	0	0	0	0	514	
1	0	0	0	0	509	
2	0	0	0	0	510	
3	0	0	0	0	511	
4	0	0	0	0	512	
5	0	0	0	0	511	
6	0	0	0	0	511	
7	0	0	0	0	511	
8	0	0	0	0	514	
9	0	0	0	0	510	
10	0	0	0	0	510	
11	0	0	0	0	512	
12	0	0	0	0	513	
13	0	0	0	0	511	
14	0	0	0	0	508	
15	0	0	0	0	504	
0	0	0	0	0	507	
1	0	0	0	0	512	
2	0	0	0	0	522	
3	0	0	0	0	519	
4	0	0	0	0	511	
5	0	0	0	0	510	
6	0	0	0	0	520	
7	0	0	0	0	518	
8	0	0	0	0	513	
9	0	0	0	0	518	
10	0	0	0	0	516	
11	0	0	0	0	510	
12	0	0	0	0	511	
13	0	0	0	0	515	
14	0	0	0	0	511	
15	0	0	0	0	501	
0	0	0	0	0	508	
1	0	0	0	0	516	
2	0	0	0	0	511	
3	0	0	0	0	506	
4	0	0	0	0	510	
5	0	0	0	0	511	
6	0	0	0	0	518	
7	0	0	0	0	513	
8	0	0	0	0	513	
9	0	0	0	0	510	
10	0	0	0	0	505	
11	0	0	0	0	510	
12	0	0	0	0	521	
13	0	0	0	0	511	
14	0	0	0	0	511	
15	0	0	0	0	514	
0	0	0	0	0	509	
1	0	0	0	0	515	
2	0	0	0	0	516	
3	0	0	0	0	508	
4	0	0	0	0	510	
5	0	0	0	0	513	
6	0	0	0	0	508	
7	0	0	0	0	512	
8	0	0	0	0	519	
9	0	0	0	0	515	
10	0	0	0	0	518	
11	0	0	0	0	518	
12	0	0	0	0	511	
13	0	0	0	0	511	
14	0	0	0	0	508	
15	0	0	0	0	509	
0	0	0	0	0	507	
1	0	0	0	0	508	
2	0	0	0	0	515	
3	0	0	0	0	511	
4	0	0	0	0	507	
5	0	0	0	0	508	
6	0	0	0	0	511	
7	0	0	0	0	507	
8	0	0	0	0	510	
9	0	0	0	0	507	
10	0	0	0	0	512	
11	0	0	0	0	516	
12	0	0	0	0	507	
13	0	0	0	0	506	
14	0	0	0	0	513	
15	0	0	0	0	516	
0	0	0	0	0	514	
1	0	0	0	0	513	
2	0	0	0	0	508	
3	0	0	0	0	504	
4	0	0	0	0	499	
5	0	0	0	0	510	
6	0	0	0	0	525	
7	0	0	0	0	524	
8	0	0	0	0	517	
9	0	0	0	0	506	
10	0	0	0	0	512	
11	0	0	0	0	510	
12	0	0	0	0	513	
13	0	0	0	0	508	
14	0	0	0	0	512	
15	0	0	0	0	516	
0	0	0	0	0	510	
1	0	0	0	0	511	
2	0	0	0	0	517	
3	0	0	0	0	515	
4	0	0	0	0	515	
5	0	0	0	0	513	
6	0	0	0	0	513	
7	0	0	0	0	514	
8	0	0	0	0	516	
9	0	0	0	0	515	
10	0	0	0	0	510	
11	0	0	0	0	511	
12	0	0	0	0	509	
13	0	0	0	0	514	
14	0	0	0	0	510	
15	0	0	0	0	511	
0	0	0	0	0	512	
1	0	0	0	0	520	
2	0	0	0	0	518	
3	0	0	0	0	510	
4	0	0	0	0	508	
5	0	0	0	0	515	
6	0	0	0	0	519	
7	0	0	0	0	515	
8	0	0	0	0	510	
9	0	0	0	0	507	
10	0	0	0	0	512	
11	0	0	0	0	509	
12	0	0	0	0	513	
13	0	0	0	0	518	
14	0	0	0	0	516	
15	0	0	0	0	515	
0	0	0	0	0	512	
1	0	0	0	0	513	
2	0	0	0	0	509	
3	0	0	0	0	513	
4	0	0	0	0	511	
5	0	0	0	0	499	
6	0	0	0	0	510	
7	0	0	0	0	511	
8	0	0	0	0	511	
9	0	0	0	0	512	
10	0	0	0	0	511	
11	0	0	0	0	511	
12	0	0	0	0	507	
13	0	0	0	0	504	
14	0	0	0	0	519	
15	0	0	0	0	521	
0	0	0	0	0	520	
1	0	0	0	0	513	
2	0	0	0	0	508	
3	0	0	0	0	514	
4	0	0	0	0	515	
5	0	0	0	0	515	
6	0	0	0	0	510	
7	0	0	0	0	507	
8	0	0	0	0	508	
9	0	0	0	0	513	
10	0	0	0	0	514	
11	0	0	0	0	504	
12	0	0	0	0	513	
13	0	0	0	0	514	
14	0	0	0	0	502	
15	0	0	0	0	502	
0	0	0	0	0	514	
1	0	0	0	0	520	
2	0	0	0	0	517	
3	0	0	0	0	511	
4	0	0	0	0	510	
5	0	0	0	0	512	
6	0	0	0	0	511	
7	0	0	0	0	511	
8	0	0	0	0	509	
9	0	0	0	0	507	
10	0	0	0	0	510	
11	0	0	0	0	513	
12	0	0	0	0	507	
13	0	0	0	0	510	
14	0	0	0	0	520	
15	0	0	0	0	519	
0	0	0	0	0	516	
1	0	0	0	0	509	
2	0	0	0	0	508	
3	0	0	0	0	503	
4	0	0	0	0	512	
5	0	0	0	0	520	
6	0	0	0	0	516	
7	0	0	0	0	514	
8	0	0	0	0	518	
9	0	0	0	0	515	
10	0	0	0	0	516	
11	0	0	0	0	512	
12	0	0	0	0	512	
13	0	0	0	0	515	
14	0	0	0	0	508	
15	0	0	0	0	511	
0	0	0	0	0	512	
1	0	0	0	0	507	
2	0	0	0	0	512	
3	0	0	0	0	515	
4	0	0	0	0	513	
5	0	0	0	0	508	
6	0	0	0	0	509	
7	0	0	0	0	513	
8	0	0	0	0	509	
9	0	0	0	0	509	
10	0	0	0	0	509	
11	0	0	0	0	505	
12	0	0	0	0	510	
13	0	0	0	0	512	
14	0	0	0	0	511	
15	0	0	0	0	508	
0	0	0	0	0	508	
1	0	0	0	0	520	
2	0	0	0	0	515	
3	0	0	0	0	513	
4	0	0	0	0	515	
5	0	0	0	0	514	
6	0	0	0	0	513	
7	0	0	0	0	511	
8	0	0	0	0	514	
9	0	0	0	0	508	
10	0	0	0	0	509	
11	0	0	0	0	507	
12	0	0	0	0	505	
13	0	0	0	0	513	
14	0	0	0	0	515	
15	0	0	0	0	506	
0	0	0	0	0	510	
1	0	0	0	0	511	
2	0	0	0	0	511	
3	0	0	0	0	512	
4	0	0	0	0	512	
5	0	0	0	0	512	
6	0	0	0	0	511	
7	0	0	0	0	512	
8	0	0	0	0	510	
9	0	0	0	0	509	
10	0	0	0	0	514	
11	0	0	0	0	514	
12	0	0	0	0	504	
13	0	0	0	0	502	
14	0	0	0	0	521	
15	0	0	0	0	518	
0	0	0	0	0	514	
1	0	0	0	0	528	
2	0	0	0	0	526	
3	0	0	0	0	512	
4	0	0	0	0	510	
5	0	0	0	0	511	
6	0	0	0	0	508	
7	0	0	0	0	517	
8	0	0	0	0	515	
9	0	0	0	0	511	
10	0	0	0	0	513	
11	0	0	0	0	511	
12	0	0	0	0	506	
13	0	0	0	0	505	
14	0	0	0	0	511	
15	0	0	0	0	508	
0	0	0	0	0	515	
1	0	0	0	0	510	
2	0	0	0	0	510	
3	0	0	0	0	511	
4	0	0	0	0	513	
5	0	0	0	0	516	
6	0	0	0	0	511	
7	0	0	0	0	510	
8	0	0	0	0	514	
9	0	0	0	0	512	
10	0	0	0	0	511	
11	0	0	0	0	508	
12	0	0	0	0	508	
13	0	0	0	0	508	
14	0	0	0	0	508	
15	0	0	0	0	512	
0	0	0	0	0	511	
1	0	0	0	0	513	
2	0	0	0	0	516	
3	0	0	0	0	509	
4	0	0	0	0	512	
5	0	0	0	0	513	
6	0	0	0	0	507	
7	0	0	0	0	500	
8	0	0	0	0	506	
9	0	0	0	0	513	
10	0	0	0	0	514	
11	0	0	0	0	506	
12	0	0	0	0	512	
13	0	0	0	0	519	
14	0	0	0	0	526	
15	0	0	0	0	521	
0	0	0	0	0	515	
1	0	0	0	0	514	
2	0	0	0	0	512	
3	0	0	0	0	510	
4	0	0	0	0	509	
5	0	0	0	0	507	
6	0	0	0	0	507	
7	0	0	0	0	517	
8	0	0	0	0	517	
9	0	0	0	0	516	
10	0	0	0	0	512	
11	0	0	0	0	507	
12	0	0	0	0	513	
13	0	0	0	0	508	
14	0	0	0	0	510	
15	0	0	0	0	510	
0	0	0	0	0	507	
1	0	0	0	0	507	
2	0	0	0	0	518	
3	0	0	0	0	512	
4	0	0	0	0	508	
5	0	0	0	0	513	
6	0	0	0	0	519	
7	0	0	0	0	515	
8	0	0	0	0	512	
9	0	0	0	0	509	
10	0	0	0	0	509	
11	0	0	0	0	507	
12	0	0	0	0	505	
13	0	0	0	0	506	
14	0	0	0	0	508	
15	0	0	0	0	509	
0	0	0	0	0	505	
1	0	0	0	0	510	
2	0	0	0	0	513	
3	0	0	0	0	513	
4	0	0	0	0	520	
5	0	0	0	0	524	
6	0	0	0	0	514	
7	0	0	0	0	504	
8	0	0	0	0	514	
9	0	0	0	0	522	
10	0	0	0	0	514	
11	0	0	0	0	513	
12	0	0	0	0	517	
13	0	0	0	0	515	
14	0	0	0	0	515	
15	0	0	0	0	515	
0	0	0	0	0	512	
1	0	0	0	0	510	
2	0	0	0	0	510	
3	0	0	0	0	511	
4	0	0	0	0	508	
5	0	0	0	0	509	
6	0	0	0	0	518	
7	0	0	0	0	515	
8	0	0	0	0	513	
9	0	0	0	0	509	
10	0	0	0	0	510	
11	0	0	0	0	508	
12	0	0	0	0	510	
13	0	0	0	0	508	
14	0	0	0	0	511	
15	0	0	0	0	516	
0	0	0	0	0	508	
1	0	0	0	0	505	
2	0	0	0	0	515	
3	0	0	0	0	509	
4	0	0	0	0	514	
5	0	0	0	0	519	
6	0	0	0	0	518	
7	0	0	0	0	515	
8	0	0	0	0	510	
9	0	0	0	0	511	
10	0	0	0	0	513	
11	0	0	0	0	514	
12	0	0	0	0	514	
13	0	0	0	0	510	
14	0	0	0	0	505	
15	0	0	0	0	511	
0	0	0	0	0	518	
1	0	0	0	0	518	
2	0	0	0	0	506	
3	0	0	0	0	502	
4	0	0	0	0	512	
5	0	0	0	0	511	
6	0	0	0	0	512	
7	0	0	0	0	507	
8	0	0	0	0	511	
9	0	0	0	0	519	
10	0	0	0	0	519	
11	0	0	0	0	513	
12	0	0	0	0	504	
13	0	0	0	0	503	
14	0	0	0	0	509	
15	0	0	0	0	511	
0	0	0	0	0	512	
1	0	0	0	0	507	
2	0	0	0	0	513	
3	0	0	0	0	515	
4	0	0	0	0	512	
5	0	0	0	0	508	
6	0	0	0	0	512	
7	0	0	0	0	507	
8	0	0	0	0	510	
9	0	0	0	0	517	
10	0	0	0	0	516	
11	0	0	0	0	513	
12	0	0	0	0	505	
13	0	0	0	0	508	
14	0	0	0	0	513	
15	0	0	0	0	513	
0	0	0	0	0	513	
1	0	0	0	0	517	
2	0	0	0	0	514	
3	0	0	0	0	511	
4	0	0	0	0	518	
5	0	0	0	0	518	
6	0	0	0	0	515	
7	0	0	0	0	508	
8	0	0	0	0	506	
9	0	0	0	0	507	
10	0	0	0	0	527	
11	0	0	0	0	525	
12	0	0	0	0	513	
13	0	0	0	0	511	
14	0	0	0	0	510	
15	0	0	0	0	507	
0	0	0	0	0	512	
1	0	0	0	0	512	
2	0	0	0	0	508	
3	0	0	0	0	511	
4	0	0	0	0	507	
5	0	0	0	0	504	
6	0	0	0	0	512	
7	0	0	0	0	511	
8	0	0	0	0	508	
9	0	0	0	0	514	
10	0	0	0	0	516	
11	0	0	0	0	505	
12	0	0	0	0	519	
13	0	0	0	0	519	
14	0	0	0	0	513	
15	0	0	0	0	510	
0	0	0	0	0	513	
1	0	0	0	0	512	
2	0	0	0	0	515	
3	0	0	0	0	508	
4	0	0	0	0	511	
5	0	0	0	0	510	
6	0	0	0	0	508	
7	0	0	0	0	508	
8	0	0	0	0	509	
9	0	0	0	0	508	
10	0	0	0	0	517	
11	0	0	0	0	519	
12	0	0	0	0	513	
13	0	0	0	0	508	
14	0	0	0	0	511	
15	0	0	0	0	511	
0	0	0	0	0	504	
1	0	0	0	0	502	
2	0	0	0	0	520	
3	0	0	0	0	521	
4	0	0	0	0	517	
5	0	0	0	0	509	
6	0	0	0	0	508	
7	0	0	0	0	512	
8	0	0	0	0	511	
9	0	0	0	0	513	
10	0	0	0	0	513	
11	0	0	0	0	516	
12	0	0	0	0	518	
13	0	0	0	0	511	
14	0	0	0	0	507	
15	0	0	0	0	504	
0	0	0	0	0	507	
1	0	0	0	0	507	
2	0	0	0	0	512	
3	0	0	0	0	519	
4	0	0	0	0	515	
5	0	0	0	0	513	
6	0	0	0	0	507	
7	0	0	0	0	509	
8	0	0	0	0	512	
9	0	0	0	0	508	
10	0	0	0	0	508	
11	0	0	0	0	519	
12	0	0	0	0	520	
13	0	0	0	0	515	
14	0	0	0	0	511	
15	0	0	0	0	511	
0	0	0	0	0	511	
1	0	0	0	0	512	
2	0	0	0	0	516	
3	0	0	0	0	512	
4	0	0	0	0	511	
5	0	0	0	0	510	
6	0	0	0	0	511	
7	0	0	0	0	512	
8	0	0	0	0	510	
9	0	0	0	0	508	
10	0	0	0	0	512	
11	0	0	0	0	514	
12	0	0	0	0	516	
13	0	0	0	0	514	
14	0	0	0	0	514	
15	0	0	0	0	513	
0	0	0	0	0	508	
1	0	0	0	0	501	
2	0	0	0	0	513	
3	0	0	0	0	522	
4	0	0	0	0	510	
5	0	0	0	0	515	
6	0	0	0	0	518	
7	0	0	0	0	509	
8	0	0	0	0	510	
9	0	0	0	0	511	
10	0	0	0	0	509	
11	0	0	0	0	510	
12	0	0	0	0	515	
13	0	0	0	0	519	
14	0	0	0	0	515	
15	0	0	0	0	504	
0	0	0	0	0	502	
1	0	0	0	0	510	
2	0	0	0	0	513	
3	0	0	0	0	511	
4	0	0	0	0	508	
5	0	0	0	0	513	
6	0	0	0	0	514	
7	0	0	0	0	511	
8	0	0	0	0	506	
9	0	0	0	0	510	
10	0	0	0	0	510	
11	0	0	0	0	509	
12	0	0	0	0	507	
13	0	0	0	0	502	
14	0	0	0	0	510	
15	0	0	0	0	518	
0	0	0	0	0	515	
1	0	0	0	0	511	
2	0	0	0	0	512	
3	0	0	0	0	507	
4	0	0	0	0	508	
5	0	0	0	0	508	
6	0	0	0	0	514	
7	0	0	0	0	511	
8	0	0	0	0	511	
9	0	0	0	0	517	
10	0	0	0	0	519	
11	0	0	0	0	513	
12	0	0	0	0	511	
13	0	0	0	0	510	
14	0	0	0	0	512	
15	0	0	0	0	506	
0	0	0	0	0	505	
1	0	0	0	0	514	
2	0	0	0	0	520	
3	0	0	0	0	521	
4	0	0	0	0	512	
5	0	0	0	0	509	
6	0	0	0	0	514	
7	0	0	0	0	515	
8	0	0	0	0	514	
9	0	0	0	0	509	
10	0	0	0	0	511	
11	0	0	0	0	513	
12	0	0	0	0	513	
13	0	0	0	0	508	
14	0	0	0	0	512	
15	0	0	0	0	514	
0	0	0	0	0	513	
1	0	0	0	0	516	
2	0	0	0	0	511	
3	0	0	0	0	510	
4	0	0	0	0	508	
5	0	0	0	0	508	
6	0	0	0	0	509	
7	0	0	0	0	523	
8	0	0	0	0	518	
9	0	0	0	0	511	
10	0	0	0	0	505	
11	0	0	0	0	518	
12	0	0	0	0	516	
13	0	0	0	0	515	
14	0	0	0	0	511	
15	0	0	0	0	504	
0	0	0	0	0	513	
1	0	0	0	0	523	
2	0	0	0	0	524	
3	0	0	0	0	510	
4	0	0	0	0	508	
5	0	0	0	0	511	
6	0	0	0	0	510	
7	0	0	0	0	510	
8	0	0	0	0	509	
9	0	0	0	0	510	
10	0	0	0	0	511	
11	0	0	0	0	509	
12	0	0	0	0	509	
13	0	0	0	0	514	
14	0	0	0	0	515	
15	0	0	0	0	513	
0	0	0	0	0	512	
1	0	0	0	0	513	
2	0	0	0	0	508	
3	0	0	0	0	505	
4	0	0	0	0	512	
5	0	0	0	0	514	
6	0	0	0	0	509	
7	0	0	0	0	511	
8	0	0	0	0	510	
9	0	0	0	0	508	
10	0	0	0	0	504	
11	0	0	0	0	505	
12	0	0	0	0	508	
13	0	0	0	0	524	
14	0	0	0	0	520	
15	0	0	0	0	517	
0	0	0	0	0	519	
1	0	0	0	0	519	
2	0	0	0	0	521	
3	0	0	0	0	514	
4	0	0	0	0	509	
5	0	0	0	0	513	
6	0	0	0	0	514	
7	0	0	0	0	513	
8	0	0	0	0	513	
9	0	0	0	0	513	
10	0	0	0	0	511	
11	0	0	0	0	512	
12	0	0	0	0	507	
13	0	0	0	0	509	
14	0	0	0	0	507	
15	0	0	0	0	508	
0	0	0	0	0	517	
1	0	0	0	0	511	
2	0	0	0	0	512	
3	0	0	0	0	518	
4	0	0	0	0	516	
5	0	0	0	0	510	
6	0	0	0	0	508	
7	0	0	0	0	513	
8	0	0	0	0	508	
9	0	0	0	0	516	
10	0	0	0	0	517	
11	0	0	0	0	512	
12	0	0	0	0	523	
13	0	0	0	0	515	
14	0	0	0	0	510	
15	0	0	0	0	504	
0	0	0	0	0	500	
1	0	0	0	0	505	
2	0	0	0	0	513	
3	0	0	0	0	512	
4	0	0	0	0	518	
5	0	0	0	0	512	
6	0	0	0	0	512	
7	0	0	0	0	513	
8	0	0	0	0	507	
9	0	0	0	0	508	
10	0	0	0	0	510	
11	0	0	0	0	512	
12	0	0	0	0	504	
13	0	0	0	0	508	
14	0	0	0	0	510	
15	0	0	0	0	510	
0	0	0	0	0	513	
1	0	0	0	0	507	
2	0	0	0	0	506	
3	0	0	0	0	512	
4	0	0	0	0	508	
5	0	0	0	0	506	
6	0	0	0	0	504	
7	0	0	0	0	514	
8	0	0	0	0	519	
9	0	0	0	0	509	
10	0	0	0	0	516	
11	0	0	0	0	526	
12	0	0	0	0	517	
13	0	0	0	0	516	
14	0	0	0	0	521	
15	0	0	0	0	508	
0	0	0	0	0	505	
1	0	0	0	0	511	
2	0	0	0	0	508	
3	0	0	0	0	507	
4	0	0	0	0	512	
5	0	0	0	0	512	
6	0	0	0	0	513	
7	0	0	0	0	514	
8	0	0	0	0	511	
9	0	0	0	0	501	
10	0	0	0	0	507	
11	0	0	0	0	517	
12	0	0	0	0	511	
13	0	0	0	0	508	
14	0	0	0	0	517	
15	0	0	0	0	517	
0	0	0	0	0	522	
1	0	0	0	0	519	
2	0	0	0	0	512	
3	0	0	0	0	514	
4	0	0	0	0	511	
5	0	0	0	0	507	
6	0	0	0	0	510	
7	0	0	0	0	516	
8	0	0	0	0	509	
9	0	0	0	0	510	
10	0	0	0	0	514	
11	0	0	0	0	512	
12	0	0	0	0	513	
13	0	0	0	0	513	
14	0	0	0	0	511	
15	0	0	0	0	509	
0	0	0	0	0	511	
1	0	0	0	0	505	
2	0	0	0	0	503	
3	0	0	0	0	515	
4	0	0	0	0	518	
5	0	0	0	0	506	
6	0	0	0	0	505	
7	0	0	0	0	528	
8	0	0	0	0	524	
9	0	0	0	0	518	
10	0	0	0	0	515	
11	0	0	0	0	512	
12	0	0	0	0	508	
13	0	0	0	0	505	
14	0	0	0	0	504	
15	0	0	0	0	506	
0	0	0	0	0	508	
1	0	0	0	0	510	
2	0	0	0	0	514	
3	0	0	0	0	507	
4	0	0	0	0	505	
5	0	0	0	0	515	
6	0	0	0	0	524	
7	0	0	0	0	519	
8	0	0	0	0	512	
9	0	0	0	0	513	
10	0	0	0	0	511	
11	0	0	0	0	511	
12	0	0	0	0	512	
13	0	0	0	0	506	
14	0	0	0	0	502	
15	0	0	0	0	506	
0	0	0	0	0	518	
1	0	0	0	0	511	
2	0	0	0	0	511	
3	0	0	0	0	510	
4	0	0	0	0	506	
5	0	0	0	0	515	
6	0	0	0	0	515	
7	0	0	0	0	516	
8	0	0	0	0	516	
9	0	0	0	0	508	
10	0	0	0	0	515	
11	0	0	0	0	516	
12	0	0	0	0	512	
13	0	0	0	0	506	
14	0	0	0	0	512	
15	0	0	0	0	517	
0	0	0	0	0	519	
1	0	0	0	0	521	
2	0	0	0	0	512	
3	0	0	0	0	511	
4	0	0	0	0	509	
5	0	0	0	0	509	
6	0	0	0	0	511	
7	0	0	0	0	515	
8	0	0	0	0	510	
9	0	0	0	0	511	
10	0	0	0	0	510	
11	0	0	0	0	508	
12	0	0	0	0	508	
13	0	0	0	0	514	
14	0	0	0	0	520	
15	0	0	0	0	516	
0	0	0	0	0	512	
1	0	0	0	0	507	
2	0	0	0	0	501	
3	0	0	0	0	505	
4	0	0	0	0	510	
5	0	0	0	0	520	
6	0	0	0	0	525	
7	0	0	0	0	518	
8	0	0	0	0	515	
9	0	0	0	0	508	
10	0	0	0	0	504	
11	0	0	0	0	503	
12	0	0	0	0	514	
13	0	0	0	0	526	
14	0	0	0	0	521	
15	0	0	0	0	511	
0	0	0	0	0	509	
1	0	0	0	0	507	
2	0	0	0	0	504	
3	0	0	0	0	509	
4	0	0	0	0	515	
5	0	0	0	0	511	
6	0	0	0	0	511	
7	0	0	0	0	510	
8	0	0	0	0	511	
9	0	0	0	0	510	
10	0	0	0	0	507	
11	0	0	0	0	512	
12	0	0	0	0	515	
13	0	0	0	0	515	
14	0	0	0	0	511	
15	0	0	0	0	512	
0	0	0	0	0	515	
1	0	0	0	0	511	
2	0	0	0	0	517	
3	0	0	0	0	516	
4	0	0	0	0	517	
5	0	0	0	0	511	
6	0	0	0	0	500	
7	0	0	0	0	504	
8	0	0	0	0	514	
9	0	0	0	0	518	
10	0	0	0	0	520	
11	0	0	0	0	518	
12	0	0	0	0	514	
13	0	0	0	0	512	
14	0	0	0	0	508	
15	0	0	0	0	506	
0	0	0	0	0	505	
1	0	0	0	0	510	
2	0	0	0	0	516	
3	0	0	0	0	518	
4	0	0	0	0	513	
5	0	0	0	0	504	
6	0	0	0	0	508	
7	0	0	0	0	513	
8	0	0	0	0	519	
9	0	0	0	0	514	
10	0	0	0	0	511	
11	0	0	0	0	512	
12	0	0	0	0	514	
13	0	0	0	0	509	
14	0	0	0	0	509	
15	0	0	0	0	507	
0	0	0	0	0	506	
1	0	0	0	0	516	
2	0	0	0	0	517	
3	0	0	0	0	512	
4	0	0	0	0	515	
5	0	0	0	0	508	
6	0	0	0	0	511	
7	0	0	0	0	512	
8	0	0	0	0	514	
9	0	0	0	0	507	
10	0	0	0	0	512	
11	0	0	0	0	515	
12	0	0	0	0	519	
13	0	0	0	0	516	
14	0	0	0	0	507	
15	0	0	0	0	511	
0	0	0	0	0	510	
1	0	0	0	0	512	
2	0	0	0	0	514	
3	0	0	0	0	509	
4	0	0	0	0	496	
5	0	0	0	0	503	
6	0	0	0	0	515	
7	0	0	0	0	510	
8	0	0	0	0	507	
9	0	0	0	0	513	
10	0	0	0	0	525	
11	0	0	0	0	512	
12	0	0	0	0	511	
13	0	0	0	0	510	
14	0	0	0	0	518	
15	0	0	0	0	518	
0	0	0	0	0	513	
1	0	0	0	0	514	
2	0	0	0	0	521	
3	0	0	0	0	513	
4	0	0	0	0	514	
5	0	0	0	0	508	
6	0	0	0	0	504	
7	0	0	0	0	510	
8	0	0	0	0	513	
9	0	0	0	0	503	
10	0	0	0	0	509	
11	0	0	0	0	519	
12	0	0	0	0	513	
13	0	0	0	0	512	
14	0	0	0	0	510	
15	0	0	0	0	512	
0	0	0	0	0	512	
1	0	0	0	0	509	
2	0	0	0	0	506	
3	0	0	0	0	505	
4	0	0	0	0	508	
5	0	0	0	0	507	
6	0	0	0	0	519	
7	0	0	0	0	516	
8	0	0	0	0	514	
9	0	0	0	0	514	
10	0	0	0	0	509	
11	0	0	0	0	510	
12	0	0	0	0	513	
13	0	0	0	0	512	
14	0	0	0	0	519	
15	0	0	0	0	503	
0	0	0	0	0	507	
1	0	0	0	0	521	
2	0	0	0	0	517	
3	0	0	0	0	516	
4	0	0	0	0	514	
5	0	0	0	0	514	
6	0	0	0	0	518	
7	0	0	0	0	513	
8	0	0	0	0	516	
9	0	0	0	0	513	
10	0	0	0	0	512	
11	0	0	0	0	510	
12	0	0	0	0	504	
13	0	0	0	0	505	
14	0	0	0	0	504	
15	0	0	0	0	514	
0	0	0	0	0	517	
1	0	0	0	0	513	
2	0	0	0	0	513	
3	0	0	0	0	513	
4	0	0	0	0	517	
5	0	0	0	0	516	
6	0	0	0	0	515	
7	0	0	0	0	514	
8	0	0	0	0	509	
9	0	0	0	0	505	
10	0	0	0	0	510	
11	0	0	0	0	506	
12	0	0	0	0	507	
13	0	0	0	0	516	
14	0	0	0	0	516	
15	0	0	0	0	514	
0	0	0	0	0	515	
1	0	0	0	0	505	
2	0	0	0	0	510	
3	0	0	0	0	515	
4	0	0	0	0	509	
5	0	0	0	0	509	
6	0	0	0	0	507	
7	0	0	0	0	509	
8	0	0	0	0	511	
9	0	0	0	0	515	
10	0	0	0	0	514	
11	0	0	0	0	515	
12	0	0	0	0	511	
13	0	0	0	0	510	
14	0	0	0	0	505	
15	0	0	0	0	504	
0	0	0	0	0	514	
1	0	0	0	0	513	
2	0	0	0	0	511	
3	0	0	0	0	513	
4	0	0	0	0	520	
5	0	0	0	0	519	
6	0	0	0	0	508	
7	0	0	0	0	509	
8	0	0	0	0	507	
9	0	0	0	0	512	
10	0	0	0	0	522	
11	0	0	0	0	526	
12	0	0	0	0	519	
13	0	0	0	0	510	
14	0	0	0	0	511	
15	0	0	0	0	513	
0	0	0	0	0	504	
1	0	0	0	0	507	
2	0	0	0	0	516	
3	0	0	0	0	509	
4	0	0	0	0	509	
5	0	0	0	0	514	
6	0	0	0	0	512	
7	0	0	0	0	508	
8	0	0	0	0	509	
9	0	0	0	0	512	
10	0	0	0	0	511	
11	0	0	0	0	511	
12	0	0	0	0	515	
13	0	0	0	0	515	
14	0	0	0	0	514	
15	0	0	0	0	511	
0	0	0	0	0	514	
1	0	0	0	0	512	
2	0	0	0	0	501	
3	0	0	0	0	509	
4	0	0	0	0	513	
5	0	0	0	0	504	
6	0	0	0	0	505	
7	0	0	0	0	515	
8	0	0	0	0	524	
9	0	0	0	0	517	
10	0	0	0	0	520	
11	0	0	0	0	518	
12	0	0	0	0	513	
13	0	0	0	0	508	
14	0	0	0	0	512	
15	0	0	0	0	510	
0	0	0	0	0	508	
1	0	0	0	0	504	
2	0	0	0	0	506	
3	0	0	0	0	508	
4	0	0	0	0	515	
5	0	0	0	0	516	
6	0	0	0	0	513	
7	0	0	0	0	512	
8	0	0	0	0	510	
9	0	0	0	0	516	
10	0	0	0	0	514	
11	0	0	0	0	514	
12	0	0	0	0	525	
13	0	0	0	0	516	
14	0	0	0	0	513	
15	0	0	0	0	508	
0	0	0	0	0	507	
1	0	0	0	0	505	
2	0	0	0	0	512	
3	0	0	0	0	515	
4	0	0	0	0	507	
5	0	0	0	0	505	
6	0	0	0	0	520	
7	0	0	0	0	510	
8	0	0	0	0	511	
9	0	0	0	0	520	
10	0	0	0	0	521	
11	0	0	0	0	513	
12	0	0	0	0	512	
13	0	0	0	0	509	
14	0	0	0	0	510	
15	0	0	0	0	508	
0	0	0	0	0	513	
1	0	0	0	0	510	
2	0	0	0	0	505	
3	0	0	0	0	503	
4	0	0	0	0	518	
5	0	0	0	0	518	
6	0	0	0	0	509	
7	0	0	0	0	514	
8	0	0	0	0	518	
9	0	0	0	0	517	
10	0	0	0	0	515	
11	0	0	0	0	504	
12	0	0	0	0	506	
13	0	0	0	0	510	
14	0	0	0	0	506	
15	0	0	0	0	511	
0	0	0	0	0	515	
1	0	0	0	0	516	
2	0	0	0	0	512	
3	0	0	0	0	504	
4	0	0	0	0	507	
5	0	0	0	0	508	
6	0	0	0	0	508	
7	0	0	0	0	511	
8	0	0	0	0	515	
9	0	0	0	0	518	
10	0	0	0	0	517	
11	0	0	0	0	511	
12	0	0	0	0	508	
13	0	0	0	0	512	
14	0	0	0	0	511	
15	0	0	0	0	508	
0	0	0	0	0	512	
1	0	0	0	0	509	
2	0	0	0	0	511	
3	0	0	0	0	509	
4	0	0	0	0	513	
5	0	0	0	0	515	
6	0	0	0	0	511	
7	0	0	0	0	507	
8	0	0	0	0	512	
9	0	0	0	0	513	
10	0	0	0	0	517	
11	0	0	0	0	513	
12	0	0	0	0	510	
13	0	0	0	0	504	
14	0	0	0	0	512	
15	0	0	0	0	513	
0	0	0	0	0	509	
1	0	0	0	0	508	
2	0	0	0	0	513	
3	0	0	0	0	516	
4	0	0	0	0	522	
5	0	0	0	0	516	
6	0	0	0	0	509	
7	0	0	0	0	497	
8	0	0	0	0	499	
9	0	0	0	0	516	
10	0	0	0	0	522	
11	0	0	0	0	522	
12	0	0	0	0	523	
13	0	0	0	0	513	
14	0	0	0	0	514	
15	0	0	0	0	517	
0	0	0	0	0	515	
1	0	0	0	0	510	
2	0	0	0	0	505	
3	0	0	0	0	509	
4	0	0	0	0	515	
5	0	0	0	0	509	
6	0	0	0	0	511	
7	0	0	0	0	517	
8	0	0	0	0	515	
9	0	0	0	0	511	
10	0	0	0	0	506	
11	0	0	0	0	502	
12	0	0	0	0	509	
13	0	0	0	0	515	
14	0	0	0	0	506	
15	0	0	0	0	505	
0	0	0	0	0	516	
1	0	0	0	0	520	
2	0	0	0	0	512	
3	0	0	0	0	511	
4	0	0	0	0	516	
5	0	0	0	0	510	
6	0	0	0	0	508	
7	0	0	0	0	515	
8	0	0	0	0	515	
9	0	0	0	0	512	
10	0	0	0	0	514	
11	0	0	0	0	514	
12	0	0	0	0	504	
13	0	0	0	0	508	
14	0	0	0	0	518	
15	0	0	0	0	515	
0	0	0	0	0	509	
1	0	0	0	0	508	
2	0	0	0	0	508	
3	0	0	0	0	509	
4	0	0	0	0	512	
5	0	0	0	0	513	
6	0	0	0	0	508	
7	0	0	0	0	507	
8	0	0	0	0	513	
9	0	0	0	0	513	
10	0	0	0	0	514	
11	0	0	0	0	510	
12	0	0	0	0	507	
13	0	0	0	0	513	
14	0	0	0	0	519	
15	0	0	0	0	513	
0	0	0	0	0	514	
1	0	0	0	0	507	
2	0	0	0	0	512	
3	0	0	0	0	514	
4	0	0	0	0	508	
5	0	0	0	0	508	
6	0	0	0	0	512	
7	0	0	0	0	508	
8	0	0	0	0	513	
9	0	0	0	0	507	
10	0	0	0	0	512	
11	0	0	0	0	520	
12	0	0	0	0	517	
13	0	0	0	0	512	
14	0	0	0	0	514	
15	0	0	0	0	504	
0	0	0	0	0	501	
1	0	0	0	0	506	
2	0	0	0	0	508	
3	0	0	0	0	512	
4	0	0	0	0	518	
5	0	0	0	0	522	
6	0	0	0	0	525	
7	0	0	0	0	516	
8	0	0	0	0	508	
9	0	0	0	0	508	
10	0	0	0	0	509	
11	0	0	0	0	512	
12	0	0	0	0	513	
13	0	0	0	0	511	
14	0	0	0	0	512	
15	0	0	0	0	513	
0	0	0	0	0	513	
1	0	0	0	0	510	
2	0	0	0	0	511	
3	0	0	0	0	507	
4	0	0	0	0	508	
5	0	0	0	0	511	
6	0	0	0	0	506	
7	0	0	0	0	507	
8	0	0	0	0	520	
9	0	0	0	0	527	
10	0	0	0	0	521	
11	0	0	0	0	515	
12	0	0	0	0	507	
13	0	0	0	0	509	
14	0	0	0	0	507	
15	0	0	0	0	504	
0	0	0	0	0	501	
1	0	0	0	0	504	
2	0	0	0	0	506	
3	0	0	0	0	511	
4	0	0	0	0	520	
5	0	0	0	0	513	
6	0	0	0	0	512	
7	0	0	0	0	519	
8	0	0	0	0	514	
9	0	0	0	0	513	
10	0	0	0	0	510	
11	0	0	0	0	512	
12	0	0	0	0	515	
13	0	0	0	0	508	
14	0	0	0	0	505	
15	0	0	0	0	508	
0	0	0	0	0	514	
1	0	0	0	0	511	
2	0	0	0	0	508	
3	0	0	0	0	508	
4	0	0	0	0	521	
5	0	0	0	0	519	
6	0	0	0	0	513	
7	0	0	0	0	510	
8	0	0	0	0	518	
9	0	0	0	0	517	
10	0	0	0	0	510	
11	0	0	0	0	505	
12	0	0	0	0	505	
13	0	0	0	0	510	
14	0	0	0	0	516	
15	0	0	0	0	511	
0	0	0	0	0	510	
1	0	0	0	0	515	
2	0	0	0	0	515	
3	0	0	0	0	513	
4	0	0	0	0	517	
5	0	0	0	0	515	
6	0	0	0	0	520	
7	0	0	0	0	517	
8	0	0	0	0	519	
9	0	0	0	0	512	
10	0	0	0	0	515	
11	0	0	0	0	514	
12	0	0	0	0	512	
13	0	0	0	0	511	
14	0	0	0	0	510	
15	0	0	0	0	514	
0	0	0	0	0	572	
1	0	0	0	0	564	
2	0	0	0	0	544	
3	0	0	0	0	525	
4	0	0	0	0	510	
5	0	0	0	0	497	
6	0	0	0	0	490	
7	0	0	0	0	484	
8	0	0	0	0	487	
9	0	0	0	0	483	
10	0	0	0	0	487	
11	0	0	0	0	494	
12	0	0	0	0	494	
13	0	0	0	0	488	
14	0	0	0	0	488	
15	0	0	0	0	508	
0	0	0	0	0	509	
1	0	0	0	0	505	
2	0	0	0	0	512	
3	0	0	0	0	521	
4	0	0	0	0	514	
5	0	0	0	0	507	
6	0	0	0	0	505	
7	0	0	0	0	509	
8	0	0	0	0	514	
9	0	0	0	0	510	
10	0	0	0	0	509	
11	0	0	0	0	512	
12	0	0	0	0	518	
13	0	0	0	0	515	
14	0	0	0	0	515	
15	0	0	0	0	510	
0	0	0	0	0	509	
1	0	0	0	0	509	
2	0	0	0	0	512	
3	0	0	0	0	508	
4	0	0	0	0	512	
5	0	0	0	0	525	
6	0	0	0	0	517	
7	0	0	0	0	518	
8	0	0	0	0	516	
9	0	0	0	0	512	
10	0	0	0	0	511	
11	0	0	0	0	510	
12	0	0	0	0	504	
13	0	0	0	0	509	
14	0	0	0	0	516	
15	0	0	0	0	508	
0	0	0	0	0	522	
1	0	0	0	0	523	
2	0	0	0	0	512	
3	0	0	0	0	514	
4	0	0	0	0	515	
5	0	0	0	0	512	
6	0	0	0	0	515	
7	0	0	0	0	522	
8	0	0	0	0	512	
9	0	0	0	0	506	
10	0	0	0	0	515	
11	0	0	0	0	516	
12	0	0	0	0	520	
13	0	0	0	0	509	
14	0	0	0	0	508	
15	0	0	0	0	508	
0	0	0	0	0	507	
1	0	0	0	0	513	
2	0	0	0	0	519	
3	0	0	0	0	521	
4	0	0	0	0	527	
5	0	0	0	0	523	
6	0	0	0	0	511	
7	0	0	0	0	508	
8	0	0	0	0	509	
9	0	0	0	0	510	
10	0	0	0	0	508	
11	0	0	0	0	507	
12	0	0	0	0	512	
13	0	0	0	0	522	
14	0	0	0	0	512	
15	0	0	0	0	509	
0	0	0	0	0	510	
1	0	0	0	0	513	
2	0	0	0	0	512	
3	0	0	0	0	511	
4	0	0	0	0	510	
5	0	0	0	0	512	
6	0	0	0	0	516	
7	0	0	0	0	514	
8	0	0	0	0	512	
9	0	0	0	0	513	
10	0	0	0	0	512	
11	0	0	0	0	513	
12	0	0	0	0	509	
13	0	0	0	0	510	
14	0	0	0	0	511	
15	0	0	0	0	513	
0	0	0	0	0	511	
1	0	0	0	0	514	
2	0	0	0	0	513	
3	0	0	0	0	509	
4	0	0	0	0	510	
5	0	0	0	0	512	
6	0	0	0	0	511	
7	0	0	0	0	511	
8	0	0	0	0	511	
9	0	0	0	0	509	
10	0	0	0	0	509	
11	0	0	0	0	508	
12	0	0	0	0	509	
13	0	0	0	0	508	
14	0	0	0	0	510	
15	0	0	0	0	508	
0	0	0	0	0	509	
1	0	0	0	0	514	
2	0	0	0	0	513	
3	0	0	0	0	511	
4	0	0	0	0	513	
5	0	0	0	0	513	
6	0	0	0	0	511	
7	0	0	0	0	510	
8	0	0	0	0	513	
9	0	0	0	0	513	
10	0	0	0	0	509	
11	0	0	0	0	509	
12	0	0	0	0	508	
13	0	0	0	0	510	
14	0	0	0	0	510	
15	0	0	0	0	514	
0	0	0	0	0	513	
1	0	0	0	0	513	
2	0	0	0	0	511	
3	0	0	0	0	505	
4	0	0	0	0	513	
5	0	0	0	0	516	
6	0	0	0	0	510	
7	0	0	0	0	513	
8	0	0	0	0	513	
9	0	0	0	0	512	
10	0	0	0	0	514	
11	0	0	0	0	512	
12	0	0	0	0	514	
13	0	0	0	0	515	
14	0	0	0	0	516	
15	0	0	0	0	512	
0	0	0	0	0	514	
1	0	0	0	0	510	
2	0	0	0	0	508	
3	0	0	0	0	516	
4	0	0	0	0	513	
5	0	0	0	0	513	
6	0	0	0	0	513	
7	0	0	0	0	512	
8	0	0	0	0	509	
9	0	0	0	0	508	
10	0	0	0	0	505	
11	0	0	0	0	516	
12	0	0	0	0	511	
13	0	0	0	0	512	
14	0	0	0	0	513	
15	0	0	0	0	518	
0	0	0	0	0	515	
1	0	0	0	0	510	
2	0	0	0	0	518	
3	0	0	0	0	517	
4	0	0	0	0	516	
5	0	0	0	0	512	
6	0	0	0	0	514	
7	0	0	0	0	512	
8	0	0	0	0	512	
9	0	0	0	0	513	
10	0	0	0	0	514	
11	0	0	0	0	513	
12	0	0	0	0	511	
13	0	0	0	0	508	
14	0	0	0	0	510	
15	0	0	0	0	509	
0	0	0	0	0	509	
1	0	0	0	0	512	
2	0	0	0	0	514	
3	0	0	0	0	516	
4	0	0	0	0	513	
5	0	0	0	0	506	
6	0	0	0	0	503	
7	0	0	0	0	492	
8	0	0	0	0	516	
9	0	0	0	0	524	
10	0	0	0	0	518	
11	0	0	0	0	519	
12	0	0	0	0	510	
13	0	0	0	0	510	
14	0	0	0	0	519	
15	0	0	0	0	518	
0	0	0	0	0	511	
1	0	0	0	0	507	
2	0	0	0	0	510	
3	0	0	0	0	510	
4	0	0	0	0	511	
5	0	0	0	0	509	
6	0	0	0	0	508	
7	0	0	0	0	507	
8	0	0	0	0	510	
9	0	0	0	0	503	
10	0	0	0	0	507	
11	0	0	0	0	504	
12	0	0	0	0	507	
13	0	0	0	0	507	
14	0	0	0	0	507	
15	0	0	0	0	511	
0	0	0	0	0	515	
1	0	0	0	0	519	
2	0	0	0	0	517	
3	0	0	0	0	512	
4	0	0	0	0	513	
5	0	0	0	0	515	
6	0	0	0	0	512	
7	0	0	0	0	510	
8	0	0	0	0	515	
9	0	0	0	0	515	
10	0	0	0	0	515	
11	0	0	0	0	513	
12	0	0	0	0	513	
13	0	0	0	0	511	
14	0	0	0	0	512	
15	0	0	0	0	510	
0	0	0	0	0	509	
1	0	0	0	0	512	
2	0	0	0	0	512	
3	0	0	0	0	511	
4	0	0	0	0	510	
5	0	0	0	0	513	
6	0	0	0	0	512	
7	0	0	0	0	514	
8	0	0	0	0	513	
9	0	0	0	0	511	
10	0	0	0	0	515	
11	0	0	0	0	515	
12	0	0	0	0	514	
13	0	0	0	0	516	
14	0	0	0	0	513	
15	0	0	0	0	514	
0	0	0	0	0	512	
1	0	0	0	0	511	
2	0	0	0	0	511	
3	0	0	0	0	515	
4	0	0	0	0	506	
5	0	0	0	0	498	
6	0	0	0	0	504	
7	0	0	0	0	504	
8	0	0	0	0	516	
9	0	0	0	0	512	
10	0	0	0	0	515	
11	0	0	0	0	510	
12	0	0	0	0	510	
13	0	0	0	0	513	
14	0	0	0	0	509	
15	0	0	0	0	507	
0	0	0	0	0	511	
1	0	0	0	0	510	
2	0	0	0	0	513	
3	0	0	0	0	519	
4	0	0	0	0	520	
5	0	0	0	0	516	
6	0	0	0	0	512	
7	0	0	0	0	514	
8	0	0	0	0	520	
9	0	0	0	0	518	
10	0	0	0	0	512	
11	0	0	0	0	502	
12	0	0	0	0	504	
13	0	0	0	0	513	
14	0	0	0	0	513	
15	0	0	0	0	512	
0	0	0	0	0	513	
1	0	0	0	0	512	
2	0	0	0	0	513	
3	0	0	0	0	512	
4	0	0	0	0	508	
5	0	0	0	0	511	
6	0	0	0	0	516	
7	0	0	0	0	512	
8	0	0	0	0	511	
9	0	0	0	0	512	
10	0	0	0	0	513	
11	0	0	0	0	513	
12	0	0	0	0	513	
13	0	0	0	0	511	
14	0	0	0	0	511	
15	0	0	0	0	511	
0	0	0	0	0	512	
1	0	0	0	0	512	
2	0	0	0	0	506	
3	0	0	0	0	508	
4	0	0	0	0	514	
5	0	0	0	0	514	
6	0	0	0	0	507	
7	0	0	0	0	510	
8	0	0	0	0	511	
9	0	0	0	0	515	
10	0	0	0	0	513	
11	0	0	0	0	512	
12	0	0	0	0	512	
13	0	0	0	0	512	
14	0	0	0	0	508	
15	0	0	0	0	508	
0	0	0	0	0	519	
1	0	0	0	0	519	
2	0	0	0	0	517	
3	0	0	0	0	523	
4	0	0	0	0	513	
5	0	0	0	0	506	
6	0	0	0	0	513	
7	0	0	0	0	515	
8	0	0	0	0	513	
9	0	0	0	0	513	
10	0	0	0	0	510	
11	0	0	0	0	510	
12	0	0	0	0	508	
13	0	0	0	0	511	
14	0	0	0	0	511	
15	0	0	0	0	512	
0	0	0	0	0	513	
1	0	0	0	0	511	
2	0	0	0	0	511	
3	0	0	0	0	509	
4	0	0	0	0	510	
5	0	0	0	0	508	
6	0	0	0	0	507	
7	0	0	0	0	500	
8	0	0	0	0	509	
9	0	0	0	0	510	
10	0	0	0	0	518	
11	0	0	0	0	522	
12	0	0	0	0	520	
13	0	0	0	0	512	
14	0	0	0	0	514	
15	0	0	0	0	513	
0	0	0	0	0	510	
1	0	0	0	0	501	
2	0	0	0	0	514	
3	0	0	0	0	515	
4	0	0	0	0	505	
5	0	0	0	0	511	
6	0	0	0	0	513	
7	0	0	0	0	512	
8	0	0	0	0	511	
9	0	0	0	0	511	
10	0	0	0	0	517	
11	0	0	0	0	513	
12	0	0	0	0	511	
13	0	0	0	0	512	
14	0	0	0	0	508	
15	0	0	0	0	510	
0	0	0	0	0	512	
1	0	0	0	0	513	
2	0	0	0	0	520	
3	0	0	0	0	509	
4	0	0	0	0	520	
5	0	0	0	0	518	
6	0	0	0	0	513	
7	0	0	0	0	508	
8	0	0	0	0	509	
9	0	0	0	0	506	
10	0	0	0	0	511	
11	0	0	0	0	512	
12	0	0	0	0	511	
13	0	0	0	0	509	
14	0	0	0	0	508	
15	0	0	0	0	509	
0	0	0	0	0	510	
1	0	0	0	0	507	
2	0	0	0	0	511	
3	0	0	0	0	507	
4	0	0	0	0	504	
5	0	0	0	0	510	
6	0	0	0	0	523	
7	0	0	0	0	526	
8	0	0	0	0	524	
9	0	0	0	0	515	
10	0	0	0	0	505	
11	0	0	0	0	511	
12	0	0	0	0	517	
13	0	0	0	0	512	
14	0	0	0	0	511	
15	0	0	0	0	511	
0	0	0	0	0	512	
1	0	0	0	0	511	
2	0	0	0	0	511	
3	0	0	0	0	513	
4	0	0	0	0	512	
5	0	0	0	0	511	
6	0	0	0	0	511	
7	0	0	0	0	511	
8	0	0	0	0	512	
9	0	0	0	0	507	
10	0	0	0	0	510	
11	0	0	0	0	514	
12	0	0	0	0	516	
13	0	0	0	0	512	
14	0	0	0	0	506	
15	0	0	0	0	508	
0	0	0	0	0	511	
1	0	0	0	0	512	
2	0	0	0	0	514	
3	0	0	0	0	512	
4	0	0	0	0	515	
5	0	0	0	0	511	
6	0	0	0	0	510	
7	0	0	0	0	516	
8	0	0	0	0	518	
9	0	0	0	0	514	
10	0	0	0	0	511	
11	0	0	0	0	510	
12	0	0	0	0	513	
13	0	0	0	0	511	
14	0	0	0	0	507	
15	0	0	0	0	506	
0	0	0	0	0	512	
1	0	0	0	0	511	
2	0	0	0	0	511	
3	0	0	0	0	515	
4	0	0	0	0	515	
5	0	0	0	0	512	
6	0	0	0	0	512	
7	0	0	0	0	513	
8	0	0	0	0	519	
9	0	0	0	0	517	
10	0	0	0	0	508	
11	0	0	0	0	507	
12	0	0	0	0	506	
13	0	0	0	0	508	
14	0	0	0	0	511	
15	0	0	0	0	510	
0	0	0	0	0	515	
1	0	0	0	0	515	
2	0	0	0	0	514	
3	0	0	0	0	511	
4	0	0	0	0	503	
5	0	0	0	0	512	
6	0	0	0	0	512	
7	0	0	0	0	515	
8	0	0	0	0	508	
9	0	0	0	0	508	
10	0	0	0	0	522	
11	0	0	0	0	521	
12	0	0	0	0	514	
13	0	0	0	0	507	
14	0	0	0	0	507	
15	0	0	0	0	510	
0	0	0	0	0	505	
1	0	0	0	0	510	
2	0	0	0	0	513	
3	0	0	0	0	514	
4	0	0	0	0	515	
5	0	0	0	0	509	
6	0	0	0	0	511	
7	0	0	0	0	511	
8	0	0	0	0	511	
9	0	0	0	0	510	
10	0	0	0	0	511	
11	0	0	0	0	515	
12	0	0	0	0	512	
13	0	0	0	0	502	
14	0	0	0	0	508	
15	0	0	0	0	511	
0	0	0	0	0	511	
1	0	0	0	0	509	
2	0	0	0	0	505	
3	0	0	0	0	518	
4	0	0	0	0	520	
5	0	0	0	0	514	
6	0	0	0	0	513	
7	0	0	0	0	513	
8	0	0	0	0	513	
9	0	0	0	0	513	
10	0	0	0	0	514	
11	0	0	0	0	513	
12	0	0	0	0	511	
13	0	0	0	0	514	
14	0	0	0	0	514	
15	0	0	0	0	511	
0	0	0	0	0	511	
1	0	0	0	0	512	
2	0	0	0	0	505	
3	0	0	0	0	508	
4	0	0	0	0	519	
5	0	0	0	0	513	
6	0	0	0	0	512	
7	0	0	0	0	519	
8	0	0	0	0	508	
9	0	0	0	0	515	
10	0	0	0	0	519	
11	0	0	0	0	523	
12	0	0	0	0	518	
13	0	0	0	0	514	
14	0	0	0	0	513	
15	0	0	0	0	508	
0	0	0	0	0	507	
1	0	0	0	0	509	
2	0	0	0	0	508	
3	0	0	0	0	509	
4	0	0	0	0	508	
5	0	0	0	0	510	
6	0	0	0	0	513	
7	0	0	0	0	513	
8	0	0	0	0	514	
9	0	0	0	0	511	
10	0	0	0	0	511	
11	0	0	0	0	511	
12	0	0	0	0	512	
13	0	0	0	0	511	
14	0	0	0	0	506	
15	0	0	0	0	508	
0	0	0	0	0	504	
1	0	0	0	0	511	
2	0	0	0	0	520	
3	0	0	0	0	515	
4	0	0	0	0	511	
5	0	0	0	0	519	
6	0	0	0	0	515	
7	0	0	0	0	511	
8	0	0	0	0	511	
9	0	0	0	0	513	
10	0	0	0	0	512	
11	0	0	0	0	511	
12	0	0	0	0	511	
13	0	0	0	0	508	
14	0	0	0	0	511	
15	0	0	0	0	513	
0	0	0	0	0	510	
1	0	0	0	0	511	
2	0	0	0	0	512	
3	0	0	0	0	511	
4	0	0	0	0	512	
5	0	0	0	0	510	
6	0	0	0	0	511	
7	0	0	0	0	510	
8	0	0	0	0	511	
9	0	0	0	0	508	
10	0	0	0	0	505	
11	0	0	0	0	508	
12	0	0	0	0	504	
13	0	0	0	0	509	
14	0	0	0	0	511	
15	0	0	0	0	508	
0	0	0	0	0	516	
1	0	0	0	0	508	
2	0	0	0	0	513	
3	0	0	0	0	525	
4	0	0	0	0	527	
5	0	0	0	0	511	
6	0	0	0	0	510	
7	0	0	0	0	513	
8	0	0	0	0	509	
9	0	0	0	0	510	
10	0	0	0	0	510	
11	0	0	0	0	515	
12	0	0	0	0	514	
13	0	0	0	0	510	
14	0	0	0	0	512	
15	0	0	0	0	513	
0	0	0	0	0	512	
1	0	0	0	0	511	
2	0	0	0	0	510	
3	0	0	0	0	511	
4	0	0	0	0	512	
5	0	0	0	0	513	
6	0	0	0	0	511	
7	0	0	0	0	512	
8	0	0	0	0	509	
9	0	0	0	0	507	
10	0	0	0	0	513	
11	0	0	0	0	512	
12	0	0	0	0	514	
13	0	0	0	0	515	
14	0	0	0	0	516	
15	0	0	0	0	515	
0	0	0	0	0	513	
1	0	0	0	0	513	
2	0	0	0	0	512	
3	0	0	0	0	508	
4	0	0	0	0	509	
5	0	0	0	0	510	
6	0	0	0	0	510	
7	0	0	0	0	513	
8	0	0	0	0	513	
9	0	0	0	0	512	
10	0	0	0	0	509	
11	0	0	0	0	514	
12	0	0	0	0	511	
13	0	0	0	0	510	
14	0	0	0	0	515	
15	0	0	0	0	520	
0	0	0	0	0	510	
1	0	0	0	0	499	
2	0	0	0	0	500	
3	0	0	0	0	505	
4	0	0	0	0	510	
5	0	0	0	0	507	
6	0	0	0	0	508	
7	0	0	0	0	513	
8	0	0	0	0	524	
9	0	0	0	0	535	
10	0	0	0	0	518	
11	0	0	0	0	511	
12	0	0	0	0	510	
13	0	0	0	0	512	
14	0	0	0	0	512	
15	0	0	0	0	512	
0	0	0	0	0	509	
1	0	0	0	0	511	
2	0	0	0	0	516	
3	0	0	0	0	513	
4	0	0	0	0	514	
5	0	0	0	0	513	
6	0	0	0	0	515	
7	0	0	0	0	511	
8	0	0	0	0	511	
9	0	0	0	0	511	
10	0	0	0	0	510	
11	0	0	0	0	509	
12	0	0	0	0	508	
13	0	0	0	0	507	
14	0	0	0	0	510	
15	0	0	0	0	509	
0	0	0	0	0	510	
1	0	0	0	0	489	
2	0	0	0	0	495	
3	0	0	0	0	521	
4	0	0	0	0	535	
5	0	0	0	0	526	
6	0	0	0	0	519	
7	0	0	0	0	512	
8	0	0	0	0	509	
9	0	0	0	0	510	
10	0	0	0	0	510	
11	0	0	0	0	511	
12	0	0	0	0	509	
13	0	0	0	0	512	
14	0	0	0	0	510	
15	0	0	0	0	512	
0	0	0	0	0	514	
1	0	0	0	0	513	
2	0	0	0	0	513	
3	0	0	0	0	509	
4	0	0	0	0	507	
5	0	0	0	0	510	
6	0	0	0	0	510	
7	0	0	0	0	508	
8	0	0	0	0	514	
9	0	0	0	0	515	
10	0	0	0	0	509	
11	0	0	0	0	510	
12	0	0	0	0	519	
13	0	0	0	0	518	
14	0	0	0	0	517	
15	0	0	0	0	517	
0	0	0	0	0	513	
1	0	0	0	0	512	
2	0	0	0	0	512	
3	0	0	0	0	511	
4	0	0	0	0	511	
5	0	0	0	0	512	
6	0	0	0	0	509	
7	0	0	0	0	512	
8	0	0	0	0	512	
9	0	0	0	0	515	
10	0	0	0	0	508	
11	0	0	0	0	499	
12	0	0	0	0	504	
13	0	0	0	0	522	
14	0	0	0	0	520	
15	0	0	0	0	510	
0	0	0	0	0	508	
1	0	0	0	0	518	
2	0	0	0	0	523	
3	0	0	0	0	524	
4	0	0	0	0	519	
5	0	0	0	0	517	
6	0	0	0	0	512	
7	0	0	0	0	507	
8	0	0	0	0	503	
9	0	0	0	0	504	
10	0	0	0	0	507	
11	0	0	0	0	507	
12	0	0	0	0	511	
13	0	0	0	0	512	
14	0	0	0	0	515	
15	0	0	0	0	513	
0	0	0	0	0	513	
1	0	0	0	0	511	
2	0	0	0	0	510	
3	0	0	0	0	511	
4	0	0	0	0	507	
5	0	0	0	0	504	
6	0	0	0	0	502	
7	0	0	0	0	505	
8	0	0	0	0	506	
9	0	0	0	0	496	
10	0	0	0	0	510	
11	0	0	0	0	537	
12	0	0	0	0	551	
13	0	0	0	0	531	
14	0	0	0	0	515	
15	0	0	0	0	510	
0	0	0	0	0	515	
1	0	0	0	0	507	
2	0	0	0	0	508	
3	0	0	0	0	509	
4	0	0	0	0	509	
5	0	0	0	0	511	
6	0	0	0	0	509	
7	0	0	0	0	509	
8	0	0	0	0	509	
9	0	0	0	0	508	
10	0	0	0	0	507	
11	0	0	0	0	508	
12	0	0	0	0	508	
13	0	0	0	0	508	
14	0	0	0	0	511	
15	0	0	0	0	511	
0	0	0	0	0	510	
1	0	0	0	0	510	
2	0	0	0	0	511	
3	0	0	0	0	509	
4	0	0	0	0	508	
5	0	0	0	0	513	
6	0	0	0	0	515	
7	0	0	0	0	515	
8	0	0	0	0	519	
9	0	0	0	0	518	
10	0	0	0	0	518	
11	0	0	0	0	512	
12	0	0	0	0	510	
13	0	0	0	0	508	
14	0	0	0	0	512	
15	0	0	0	0	512	
0	0	0	0	0	510	
1	0	0	0	0	510	
2	0	0	0	0	511	
3	0	0	0	0	512	
4	0	0	0	0	512	
5	0	0	0	0	512	
6	0	0	0	0	512	
7	0	0	0	0	509	
8	0	0	0	0	509	
9	0	0	0	0	495	
10	0	0	0	0	510	
11	0	0	0	0	523	
12	0	0	0	0	524	
13	0	0	0	0	531	
14	0	0	0	0	517	
15	0	0	0	0	507	
0	0	0	0	0	512	
1	0	0	0	0	513	
2	0	0	0	0	511	
3	0	0	0	0	512	
4	0	0	0	0	510	
5	0	0	0	0	508	
6	0	0	0	0	509	
7	0	0	0	0	508	
8	0	0	0	0	507	
9	0	0	0	0	509	
10	0	0	0	0	512	
11	0	0	0	0	510	
12	0	0	0	0	512	
13	0	0	0	0	512	
14	0	0	0	0	505	
15	0	0	0	0	499	
0	0	0	0	0	510	
1	0	0	0	0	525	
2	0	0	0	0	527	
3	0	0	0	0	516	
4	0	0	0	0	501	
5	0	0	0	0	503	
6	0	0	0	0	524	
7	0	0	0	0	527	
8	0	0	0	0	517	
9	0	0	0	0	514	
10	0	0	0	0	510	
11	0	0	0	0	512	
12	0	0	0	0	508	
13	0	0	0	0	510	
14	0	0	0	0	513	
15	0	0	0	0	512	
0	0	0	0	0	517	
1	0	0	0	0	515	
2	0	0	0	0	519	
3	0	0	0	0	512	
4	0	0	0	0	507	
5	0	0	0	0	500	
6	0	0	0	0	498	
7	0	0	0	0	481	
8	0	0	0	0	504	
9	0	0	0	0	551	
10	0	0	0	0	550	
11	0	0	0	0	519	
12	0	0	0	0	511	
13	0	0	0	0	518	
14	0	0	0	0	511	
15	0	0	0	0	510	
0	0	0	0	0	506	
1	0	0	0	0	506	
2	0	0	0	0	506	
3	0	0	0	0	505	
4	0	0	0	0	506	
5	0	0	0	0	506	
6	0	0	0	0	508	
7	0	0	0	0	511	
8	0	0	0	0	511	
9	0	0	0	0	510	
10	0	0	0	0	512	
11	0	0	0	0	511	
12	0	0	0	0	511	
13	0	0	0	0	512	
14	0	0	0	0	512	
15	0	0	0	0	508	
0	0	0	0	0	510	
1	0	0	0	0	509	
2	0	0	0	0	512	
3	0	0	0	0	513	
4	0	0	0	0	513	
5	0	0	0	0	511	
6	0	0	0	0	512	
7	0	0	0	0	514	
8	0	0	0	0	515	
9	0	0	0	0	512	
10	0	0	0	0	513	
11	0	0	0	0	511	
12	0	0	0	0	511	
13	0	0	0	0	510	
14	0	0	0	0	510	
15	0	0	0	0	510	
0	0	0	0	0	511	
1	0	0	0	0	511	
2	0	0	0	0	515	
3	0	0	0	0	514	
4	0	0	0	0	514	
5	0	0	0	0	517	
6	0	0	0	0	516	
7	0	0	0	0	517	
8	0	0	0	0	517	
9	0	0	0	0	514	
10	0	0	0	0	508	
11	0	0	0	0	507	
12	0	0	0	0	510	
13	0	0	0	0	504	
14	0	0	0	0	512	
15	0	0	0	0	513	
0	0	0	0	0	509	
1	0	0	0	0	515	
2	0	0	0	0	515	
3	0	0	0	0	514	
4	0	0	0	0	515	
5	0	0	0	0	512	
6	0	0	0	0	513	
7	0	0	0	0	513	
8	0	0	0	0	512	
9	0	0	0	0	514	
10	0	0	0	0	513	
11	0	0	0	0	513	
12	0	0	0	0	514	
13	0	0	0	0	512	
14	0	0	0	0	511	
15	0	0	0	0	513	
0	0	0	0	0	510	
1	0	0	0	0	506	
2	0	0	0	0	509	
3	0	0	0	0	518	
4	0	0	0	0	508	
5	0	0	0	0	510	
6	0	0	0	0	512	
7	0	0	0	0	515	
8	0	0	0	0	508	
9	0	0	0	0	495	
10	0	0	0	0	505	
11	0	0	0	0	513	
12	0	0	0	0	515	
13	0	0	0	0	514	
14	0	0	0	0	511	
15	0	0	0	0	509	
0	0	0	0	0	509	
1	0	0	0	0	514	
2	0	0	0	0	514	
3	0	0	0	0	513	
4	0	0	0	0	525	
5	0	0	0	0	522	
6	0	0	0	0	506	
7	0	0	0	0	507	
8	0	0	0	0	517	
9	0	0	0	0	531	
10	0	0	0	0	514	
11	0	0	0	0	513	
12	0	0	0	0	519	
13	0	0	0	0	512	
14	0	0	0	0	512	
15	0	0	0	0	505	
0	0	0	0	0	506	
1	0	0	0	0	510	
2	0	0	0	0	507	
3	0	0	0	0	508	
4	0	0	0	0	507	
5	0	0	0	0	504	
6	0	0	0	0	507	
7	0	0	0	0	509	
8	0	0	0	0	510	
9	0	0	0	0	512	
10	0	0	0	0	512	
11	0	0	0	0	514	
12	0	0	0	0	513	
13	0	0	0	0	515	
14	0	0	0	0	516	
15	0	0	0	0	516	
0	0	0	0	0	514	
1	0	0	0	0	504	
2	0	0	0	0	509	
3	0	0	0	0	510	
4	0	0	0	0	503	
5	0	0	0	0	499	
6	0	0	0	0	505	
7	0	0	0	0	509	
8	0	0	0	0	511	
9	0	0	0	0	510	
10	0	0	0	0	516	
11	0	0	0	0	516	
12	0	0	0	0	516	
13	0	0	0	0	512	
14	0	0	0	0	510	
15	0	0	0	0	510	
0	0	0	0	0	506	
1	0	0	0	0	510	
2	0	0	0	0	512	
3	0	0	0	0	515	
4	0	0	0	0	517	
5	0	0	0	0	521	
6	0	0	0	0	523	
7	0	0	0	0	519	
8	0	0	0	0	516	
9	0	0	0	0	512	
10	0	0	0	0	510	
11	0	0	0	0	512	
12	0	0	0	0	504	
13	0	0	0	0	507	
14	0	0	0	0	516	
15	0	0	0	0	516	
0	0	0	0	0	513	
1	0	0	0	0	512	
2	0	0	0	0	512	
3	0	0	0	0	510	
4	0	0	0	0	510	
5	0	0	0	0	508	
6	0	0	0	0	503	
7	0	0	0	0	507	
8	0	0	0	0	509	
9	0	0	0	0	507	
10	0	0	0	0	515	
11	0	0	0	0	519	
12	0	0	0	0	524	
13	0	0	0	0	513	
14	0	0	0	0	508	
15	0	0	0	0	521	
0	0	0	0	0	519	
1	0	0	0	0	514	
2	0	0	0	0	514	
3	0	0	0	0	511	
4	0	0	0	0	515	
5	0	0	0	0	513	
6	0	0	0	0	515	
7	0	0	0	0	513	
8	0	0	0	0	507	
9	0	0	0	0	510	
10	0	0	0	0	514	
11	0	0	0	0	505	
12	0	0	0	0	501	
13	0	0	0	0	499	
14	0	0	0	0	509	
15	0	0	0	0	516	
0	0	0	0	0	506	
1	0	0	0	0	513	
2	0	0	0	0	516	
3	0	0	0	0	514	
4	0	0	0	0	516	
5	0	0	0	0	512	
6	0	0	0	0	509	
7	0	0	0	0	509	
8	0	0	0	0	512	
9	0	0	0	0	513	
10	0	0	0	0	516	
11	0	0	0	0	520	
12	0	0	0	0	516	
13	0	0	0	0	524	
14	0	0	0	0	516	
15	0	0	0	0	511	
0	0	0	0	0	511	
1	0	0	0	0	506	
2	0	0	0	0	495	
3	0	0	0	0	489	
4	0	0	0	0	499	
5	0	0	0	0	515	
6	0	0	0	0	512	
7	0	0	0	0	516	
8	0	0	0	0	528	
9	0	0	0	0	538	
10	0	0	0	0	515	
11	0	0	0	0	504	
12	0	0	0	0	509	
13	0	0	0	0	509	
14	0	0	0	0	509	
15	0	0	0	0	513	
0	0	0	0	0	513	
1	0	0	0	0	511	
2	0	0	0	0	507	
3	0	0	0	0	510	
4	0	0	0	0	511	
5	0	0	0	0	512	
6	0	0	0	0	509	
7	0	0	0	0	508	
8	0	0	0	0	509	
9	0	0	0	0	509	
10	0	0	0	0	511	
11	0	0	0	0	511	
12	0	0	0	0	509	
13	0	0	0	0	510	
14	0	0	0	0	510	
15	0	0	0	0	513	
0	0	0	0	0	513	
1	0	0	0	0	509	
2	0	0	0	0	505	
3	0	0	0	0	518	
4	0	0	0	0	525	
5	0	0	0	0	518	
6	0	0	0	0	511	
7	0	0	0	0	513	
8	0	0	0	0	509	
9	0	0	0	0	507	
10	0	0	0	0	512	
11	0	0	0	0	509	
12	0	0	0	0	508	
13	0	0	0	0	509	
14	0	0	0	0	510	
15	0	0	0	0	513	
0	0	0	0	0	514	
1	0	0	0	0	515	
2	0	0	0	0	517	
3	0	0	0	0	515	
4	0	0	0	0	515	
5	0	0	0	0	512	
6	0	0	0	0	507	
7	0	0	0	0	503	
8	0	0	0	0	512	
9	0	0	0	0	521	
10	0	0	0	0	516	
11	0	0	0	0	508	
12	0	0	0	0	507	
13	0	0	0	0	508	
14	0	0	0	0	514	
15	0	0	0	0	512	
0	0	0	0	0	515	
1	0	0	0	0	520	
2	0	0	0	0	514	
3	0	0	0	0	515	
4	0	0	0	0	514	
5	0	0	0	0	515	
6	0	0	0	0	515	
7	0	0	0	0	514	
8	0	0	0	0	518	
9	0	0	0	0	518	
10	0	0	0	0	516	
11	0	0	0	0	516	
12	0	0	0	0	511	
13	0	0	0	0	510	
14	0	0	0	0	508	
15	0	0	0	0	502	
0	0	0	0	0	505	
1	0	0	0	0	506	
2	0	0	0	0	505	
3	0	0	0	0	510	
4	0	0	0	0	516	
5	0	0	0	0	522	
6	0	0	0	0	517	
7	0	0	0	0	520	
8	0	0	0	0	508	
9	0	0	0	0	514	
10	0	0	0	0	520	
11	0	0	0	0	510	
12	0	0	0	0	509	
13	0	0	0	0	509	
14	0	0	0	0	507	
15	0	0	0	0	508	
0	0	0	0	0	509	
1	0	0	0	0	508	
2	0	0	0	0	508	
3	0	0	0	0	510	
4	0	0	0	0	507	
5	0	0	0	0	510	
6	0	0	0	0	514	
7	0	0	0	0	515	
8	0	0	0	0	512	
9	0	0	0	0	506	
10	0	0	0	0	514	
11	0	0	0	0	504	
12	0	0	0	0	507	
13	0	0	0	0	512	
14	0	0	0	0	515	
15	0	0	0	0	524	
0	0	0	0	0	516	
1	0	0	0	0	514	
2	0	0	0	0	506	
3	0	0	0	0	503	
4	0	0	0	0	510	
5	0	0	0	0	516	
6	0	0	0	0	512	
7	0	0	0	0	511	
8	0	0	0	0	512	
9	0	0	0	0	512	
10	0	0	0	0	511	
11	0	0	0	0	511	
12	0	0	0	0	510	
13	0	0	0	0	512	
14	0	0	0	0	511	
15	0	0	0	0	514	
0	0	0	0	0	515	
1	0	0	0	0	508	
2	0	0	0	0	511	
3	0	0	0	0	510	
4	0	0	0	0	516	
5	0	0	0	0	512	
6	0	0	0	0	509	
7	0	0	0	0	510	
8	0	0	0	0	511	
9	0	0	0	0	507	
10	0	0	0	0	511	
11	0	0	0	0	513	
12	0	0	0	0	515	
13	0	0	0	0	512	
14	0	0	0	0	517	
15	0	0	0	0	514	
0	0	0	0	0	514	
1	0	0	0	0	516	
2	0	0	0	0	516	
3	0	0	0	0	515	
4	0	0	0	0	517	
5	0	0	0	0	514	
6	0	0	0	0	513	
7	0	0	0	0	510	
8	0	0	0	0	514	
9	0	0	0	0	515	
10	0	0	0	0	514	
11	0	0	0	0	515	
12	0	0	0	0	513	
13	0	0	0	0	513	
14	0	0	0	0	506	
15	0	0	0	0	506	
0	0	0	0	0	507	
1	0	0	0	0	513	
2	0	0	0	0	518	
3	0	0	0	0	508	
4	0	0	0	0	512	
5	0	0	0	0	523	
6	0	0	0	0	519	
7	0	0	0	0	507	
8	0	0	0	0	498	
9	0	0	0	0	494	
10	0	0	0	0	508	
11	0	0	0	0	511	
12	0	0	0	0	508	
13	0	0	0	0	505	
14	0	0	0	0	509	
15	0	0	0	0	513	
0	0	0	0	0	514	
1	0	0	0	0	508	
2	0	0	0	0	513	
3	0	0	0	0	513	
4	0	0	0	0	518	
5	0	0	0	0	518	
6	0	0	0	0	516	
7	0	0	0	0	516	
8	0	0	0	0	515	
9	0	0	0	0	513	
10	0	0	0	0	510	
11	0	0	0	0	502	
12	0	0	0	0	504	
13	0	0	0	0	507	
14	0	0	0	0	514	
15	0	0	0	0	521	
0	0	0	0	0	522	
1	0	0	0	0	515	
2	0	0	0	0	517	
3	0	0	0	0	518	
4	0	0	0	0	512	
5	0	0	0	0	515	
6	0	0	0	0	513	
7	0	0	0	0	510	
8	0	0	0	0	512	
9	0	0	0	0	511	
10	0	0	0	0	508	
11	0	0	0	0	507	
12	0	0	0	0	510	
13	0	0	0	0	511	
14	0	0	0	0	508	
15	0	0	0	0	510	
0	0	0	0	0	512	
1	0	0	0	0	511	
2	0	0	0	0	513	
3	0	0	0	0	512	
4	0	0	0	0	512	
5	0	0	0	0	511	
6	0	0	0	0	512	
7	0	0	0	0	515	
8	0	0	0	0	515	
9	0	0	0	0	513	
10	0	0	0	0	513	
11	0	0	0	0	511	
12	0	0	0	0	510	
13	0	0	0	0	506	
14	0	0	0	0	511	
15	0	0	0	0	511	
0	0	0	0	0	512	
1	0	0	0	0	513	
2	0	0	0	0	508	
3	0	0	0	0	513	
4	0	0	0	0	515	
5	0	0	0	0	515	
6	0	0	0	0	512	
7	0	0	0	0	510	
8	0	0	0	0	514	
9	0	0	0	0	512	
10	0	0	0	0	508	
11	0	0	0	0	511	
12	0	0	0	0	511	
13	0	0	0	0	511	
14	0	0	0	0	512	
15	0	0	0	0	512	
0	0	0	0	0	508	
1	0	0	0	0	511	
2	0	0	0	0	512	
3	0	0	0	0	508	
4	0	0	0	0	496	
5	0	0	0	0	509	
6	0	0	0	0	518	
7	0	0	0	0	533	
8	0	0	0	0	533	
9	0	0	0	0	519	
10	0	0	0	0	514	
11	0	0	0	0	511	
12	0	0	0	0	504	
13	0	0	0	0	500	
14	0	0	0	0	504	
15	0	0	0	0	508	
0	0	0	0	0	508	
1	0	0	0	0	511	
2	0	0	0	0	511	
3	0	0	0	0	512	
4	0	0	0	0	515	
5	0	0	0	0	513	
6	0	0	0	0	515	
7	0	0	0	0	511	
8	0	0	0	0	513	
9	0	0	0	0	515	
10	0	0	0	0	513	
11	0	0	0	0	514	
12	0	0	0	0	516	
13	0	0	0	0	512	
14	0	0	0	0	512	
15	0	0	0	0	512	
0	0	0	0	0	511	
1	0	0	0	0	502	
2	0	0	0	0	499	
3	0	0	0	0	505	
4	0	0	0	0	519	
5	0	0	0	0	521	
6	0	0	0	0	515	
7	0	0	0	0	513	
8	0	0	0	0	515	
9	0	0	0	0	515	
10	0	0	0	0	515	
11	0	0	0	0	511	
12	0	0	0	0	511	
13	0	0	0	0	513	
14	0	0	0	0	510	
15	0	0	0	0	513	
0	0	0	0	0	512	
1	0	0	0	0	510	
2	0	0	0	0	510	
3	0	0	0	0	509	
4	0	0	0	0	507	
5	0	0	0	0	503	
6	0	0	0	0	501	
7	0	0	0	0	502	
8	0	0	0	0	515	
9	0	0	0	0	516	
10	0	0	0	0	507	
11	0	0	0	0	514	
12	0	0	0	0	531	
13	0	0	0	0	524	
14	0	0	0	0	515	
15	0	0	0	0	510	
0	0	0	0	0	511	
1	0	0	0	0	511	
2	0	0	0	0	507	
3	0	0	0	0	507	
4	0	0	0	0	509	
5	0	0	0	0	509	
6	0	0	0	0	512	
7	0	0	0	0	512	
8	0	0	0	0	512	
9	0	0	0	0	511	
10	0	0	0	0	509	
11	0	0	0	0	508	
12	0	0	0	0	511	
13	0	0	0	0	513	
14	0	0	0	0	514	
15	0	0	0	0	515	
0	0	0	0	0	514	
1	0	0	0	0	509	
2	0	0	0	0	500	
3	0	0	0	0	488	
4	0	0	0	0	507	
5	0	0	0	0	527	
6	0	0	0	0	515	
7	0	0	0	0	521	
8	0	0	0	0	540	
9	0	0	0	0	520	
10	0	0	0	0	524	
11	0	0	0	0	521	
12	0	0	0	0	511	
13	0	0	0	0	508	
14	0	0	0	0	507	
15	0	0	0	0	509	
0	0	0	0	0	509	
1	0	0	0	0	511	
2	0	0	0	0	511	
3	0	0	0	0	511	
4	0	0	0	0	516	
5	0	0	0	0	515	
6	0	0	0	0	518	
7	0	0	0	0	512	
8	0	0	0	0	504	
9	0	0	0	0	499	
10	0	0	0	0	501	
11	0	0	0	0	507	
12	0	0	0	0	516	
13	0	0	0	0	516	
14	0	0	0	0	515	
15	0	0	0	0	503	
0	0	0	0	0	492	
1	0	0	0	0	500	
2	0	0	0	0	526	
3	0	0	0	0	539	
4	0	0	0	0	528	
5	0	0	0	0	518	
6	0	0	0	0	510	
7	0	0	0	0	509	
8	0	0	0	0	511	
9	0	0	0	0	513	
10	0	0	0	0	515	
11	0	0	0	0	514	
12	0	0	0	0	514	
13	0	0	0	0	514	
14	0	0	0	0	512	
15	0	0	0	0	512	
0	0	0	0	0	513	
1	0	0	0	0	511	
2	0	0	0	0	511	
3	0	0	0	0	511	
4	0	0	0	0	513	
5	0	0	0	0	512	
6	0	0	0	0	513	
7	0	0	0	0	513	
8	0	0	0	0	511	
9	0	0	0	0	511	
10	0	0	0	0	510	
11	0	0	0	0	508	
12	0	0	0	0	510	
13	0	0	0	0	505	
14	0	0	0	0	504	
15	0	0	0	0	508	
0	0	0	0	0	508	
1	0	0	0	0	511	
2	0	0	0	0	515	
3	0	0	0	0	519	
4	0	0	0	0	517	
5	0	0	0	0	514	
6	0	0	0	0	515	
7	0	0	0	0	512	
8	0	0	0	0	512	
9	0	0	0	0	512	
10	0	0	0	0	508	
11	0	0	0	0	508	
12	0	0	0	0	508	
13	0	0	0	0	510	
14	0	0	0	0	508	
15	0	0	0	0	507	
0	0	0	0	0	507	
1	0	0	0	0	508	
2	0	0	0	0	506	
3	0	0	0	0	507	
4	0	0	0	0	508	
5	0	0	0	0	508	
6	0	0	0	0	509	
7	0	0	0	0	516	
8	0	0	0	0	526	
9	0	0	0	0	536	
10	0	0	0	0	540	
11	0	0	0	0	532	
12	0	0	0	0	527	
13	0	0	0	0	520	
14	0	0	0	0	513	
15	0	0	0	0	510	
0	0	0	0	0	503	
1	0	0	0	0	499	
2	0	0	0	0	499	
3	0	0	0	0	493	
4	0	0	0	0	492	
5	0	0	0	0	489	
6	0	0	0	0	491	
7	0	0	0	0	480	
8	0	0	0	0	465	
9	0	0	0	0	486	
10	0	0	0	0	536	
11	0	0	0	0	542	
12	0	0	0	0	513	
13	0	0	0	0	505	
14	0	0	0	0	512	
15	0	0	0	0	522	
0	0	0	0	0	531	
1	0	0	0	0	526	
2	0	0	0	0	520	
3	0	0	0	0	523	
4	0	0	0	0	521	
5	0	0	0	0	519	
6	0	0	0	0	515	
7	0	0	0	0	517	
8	0	0	0	0	517	
9	0	0	0	0	515	
10	0	0	0	0	511	
11	0	0	0	0	509	
12	0	0	0	0	509	
13	0	0	0	0	510	
14	0	0	0	0	511	
15	0	0	0	0	515	
0	0	0	0	0	511	
1	0	0	0	0	512	
2	0	0	0	0	514	
3	0	0	0	0	510	
4	0	0	0	0	511	
5	0	0	0	0	509	
6	0	0	0	0	514	
7	0	0	0	0	518	
8	0	0	0	0	515	
9	0	0	0	0	514	
10	0	0	0	0	508	
11	0	0	0	0	507	
12	0	0	0	0	512	
13	0	0	0	0	513	
14	0	0	0	0	513	
15	0	0	0	0	511	
0	0	0	0	0	511	
1	0	0	0	0	514	
2	0	0	0	0	518	
3	0	0	0	0	516	
4	0	0	0	0	513	
5	0	0	0	0	511	
6	0	0	0	0	511	
7	0	0	0	0	508	
8	0	0	0	0	511	
9	0	0	0	0	514	
10	0	0	0	0	511	
11	0	0	0	0	507	
12	0	0	0	0	510	
13	0	0	0	0	512	
14	0	0	0	0	513	
15	0	0	0	0	513	
0	0	0	0	0	516	
1	0	0	0	0	515	
2	0	0	0	0	511	
3	0	0	0	0	512	
4	0	0	0	0	513	
5	0	0	0	0	515	
6	0	0	0	0	507	
7	0	0	0	0	500	
8	0	0	0	0	505	
9	0	0	0	0	514	
10	0	0	0	0	515	
11	0	0	0	0	516	
12	0	0	0	0	515	
13	0	0	0	0	507	
14	0	0	0	0	507	
15	0	0	0	0	509	
0	0	0	0	0	509	
1	0	0	0	0	502	
2	0	0	0	0	509	
3	0	0	0	0	519	
4	0	0	0	0	501	
5	0	0	0	0	505	
6	0	0	0	0	517	
7	0	0	0	0	523	
8	0	0	0	0	518	
9	0	0	0	0	504	
10	0	0	0	0	503	
11	0	0	0	0	522	
12	0	0	0	0	530	
13	0	0	0	0	522	
14	0	0	0	0	522	
15	0	0	0	0	527	
0	0	0	0	0	540	
1	0	0	0	0	545	
2	0	0	0	0	535	
3	0	0	0	0	523	
4	0	0	0	0	513	
5	0	0	0	0	502	
6	0	0	0	0	504	
7	0	0	0	0	509	
8	0	0	0	0	514	
9	0	0	0	0	513	
10	0	0	0	0	517	
11	0	0	0	0	539	
12	0	0	0	0	547	
13	0	0	0	0	528	
14	0	0	0	0	504	
15	0	0	0	0	489	
0	0	0	0	0	468	
1	0	0	0	0	454	
2	0	0	0	0	455	
3	0	0	0	0	461	
4	0	0	0	0	475	
5	0	0	0	0	486	
6	0	0	0	0	497	
7	0	0	0	0	495	
8	0	0	0	0	494	
9	0	0	0	0	494	
10	0	0	0	0	507	
11	0	0	0	0	509	
12	0	0	0	0	506	
13	0	0	0	0	496	
14	0	0	0	0	511	
15	0	0	0	0	533	
0	0	0	0	0	548	
1	0	0	0	0	546	
2	0	0	0	0	542	
3	0	0	0	0	542	
4	0	0	0	0	544	
5	0	0	0	0	536	
6	0	0	0	0	525	
7	0	0	0	0	506	
8	0	0	0	0	501	
9	0	0	0	0	496	
10	0	0	0	0	488	
11	0	0	0	0	491	
12	0	0	0	0	495	
13	0	0	0	0	496	
14	0	0	0	0	495	
15	0	0	0	0	491	
0	0	0	0	0	487	
1	0	0	0	0	491	
2	0	0	0	0	497	
3	0	0	0	0	502	
4	0	0	0	0	505	
5	0	0	0	0	510	
6	0	0	0	0	523	
7	0	0	0	0	531	
8	0	0	0	0	554	
9	0	0	0	0	577	
10	0	0	0	0	588	
11	0	0	0	0	581	
12	0	0	0	0	568	
13	0	0	0	0	553	
14	0	0	0	0	541	
15	0	0	0	0	526	
0	0	0	0	0	514	
1	0	0	0	0	515	
2	0	0	0	0	501	
3	0	0	0	0	472	
4	0	0	0	0	463	
5	0	0	0	0	457	
6	0	0	0	0	464	
7	0	0	0	0	469	
8	0	0	0	0	475	
9	0	0	0	0	481	
10	0	0	0	0	491	
11	0	0	0	0	499	
12	0	0	0	0	497	
13	0	0	0	0	512	
14	0	0	0	0	523	
15	0	0	0	0	527	
0	0	0	0	0	536	
1	0	0	0	0	541	
2	0	0	0	0	558	
3	0	0	0	0	569	
4	0	0	0	0	559	
5	0	0	0	0	550	
6	0	0	0	0	540	
7	0	0	0	0	527	
8	0	0	0	0	516	
9	0	0	0	0	500	
10	0	0	0	0	477	
11	0	0	0	0	464	
12	0	0	0	0	463	
13	0	0	0	0	447	
14	0	0	0	0	444	
15	0	0	0	0	459	
0	0	0	0	0	477	
1	0	0	0	0	500	
2	0	0	0	0	499	
3	0	0	0	0	499	
4	0	0	0	0	508	
5	0	0	0	0	507	
6	0	0	0	0	499	
7	0	0	0	0	504	
8	0	0	0	0	516	
9	0	0	0	0	524	
10	0	0	0	0	517	
11	0	0	0	0	507	
12	0	0	0	0	504	
13	0	0	0	0	511	
14	0	0	0	0	529	
15	0	0	0	0	541	
0	0	0	0	0	537	
1	0	0	0	0	543	
2	0	0	0	0	544	
3	0	0	0	0	545	
4	0	0	0	0	548	
5	0	0	0	0	541	
6	0	0	0	0	541	
7	0	0	0	0	543	
8	0	0	0	0	536	
9	0	0	0	0	516	
10	0	0	0	0	508	
11	0	0	0	0	513	
12	0	0	0	0	519	
13	0	0	0	0	510	
14	0	0	0	0	491	
15	0	0	0	0	496	
0	0	0	0	0	501	
1	0	0	0	0	497	
2	0	0	0	0	495	
3	0	0	0	0	500	
4	0	0	0	0	508	
5	0	0	0	0	497	
6	0	0	0	0	490	
7	0	0	0	0	481	
8	0	0	0	0	488	
9	0	0	0	0	500	
10	0	0	0	0	496	
11	0	0	0	0	510	
12	0	0	0	0	521	
13	0	0	0	0	527	
14	0	0	0	0	538	
15	0	0	0	0	547	
0	0	0	0	0	576	
1	0	0	0	0	605	
2	0	0	0	0	625	
3	0	0	0	0	625	
4	0	0	0	0	604	
5	0	0	0	0	552	
6	0	0	0	0	517	
7	0	0	0	0	489	
8	0	0	0	0	460	
9	0	0	0	0	435	
10	0	0	0	0	425	
11	0	0	0	0	425	
12	0	0	0	0	431	
13	0	0	0	0	464	
14	0	0	0	0	477	
15	0	0	0	0	476	
0	0	0	0	0	466	
1	0	0	0	0	463	
2	0	0	0	0	455	
3	0	0	0	0	460	
4	0	0	0	0	472	
5	0	0	0	0	484	
6	0	0	0	0	498	
7	0	0	0	0	501	
8	0	0	0	0	521	
9	0	0	0	0	540	
10	0	0	0	0	546	
11	0	0	0	0	546	
12	0	0	0	0	550	
13	0	0	0	0	557	
14	0	0	0	0	575	
15	0	0	0	0	574	
0	0	0	0	0	574	
1	0	0	0	0	580	
2	0	0	0	0	575	
3	0	0	0	0	556	
4	0	0	0	0	525	
5	0	0	0	0	542	
6	0	0	0	0	563	
7	0	0	0	0	583	
8	0	0	0	0	553	
9	0	0	0	0	505	
10	0	0	0	0	471	
11	0	0	0	0	441	
12	0	0	0	0	421	
13	0	0	0	0	391	
14	0	0	0	0	367	
15	0	0	0	0	360	
0	0	0	0	0	391	
1	0	0	0	0	443	
2	0	0	0	0	505	
3	0	0	0	0	532	
4	0	0	0	0	547	
5	0	0	0	0	544	
6	0	0	0	0	523	
7	0	0	0	0	531	
8	0	0	0	0	543	
9	0	0	0	0	535	
10	0	0	0	0	535	
11	0	0	0	0	551	
12	0	0	0	0	564	
13	0	0	0	0	579	
14	0	0	0	0	567	
15	0	0	0	0	530	
0	0	0	0	0	516	
1	0	0	0	0	508	
2	0	0	0	0	475	
3	0	0	0	0	463	
4	0	0	0	0	473	
5	0	0	0	0	493	
6	0	0	0	0	528	
7	0	0	0	0	550	
8	0	0	0	0	556	
9	0	0	0	0	573	
10	0	0	0	0	565	
11	0	0	0	0	543	
12	0	0	0	0	521	
13	0	0	0	0	487	
14	0	0	0	0	465	
15	0	0	0	0	452	
0	0	0	0	0	455	
1	0	0	0	0	460	
2	0	0	0	0	472	
3	0	0	0	0	491	
4	0	0	0	0	506	
5	0	0	0	0	503	
6	0	0	0	0	503	
7	0	0	0	0	504	
8	0	0	0	0	506	
9	0	0	0	0	524	
10	0	0	0	0	543	
11	0	0	0	0	550	
12	0	0	0	0	539	
13	0	0	0	0	543	
14	0	0	0	0	545	
15	0	0	0	0	545	
0	0	0	0	0	551	
1	0	0	0	0	542	
2	0	0	0	0	532	
3	0	0	0	0	517	
4	0	0	0	0	498	
5	0	0	0	0	491	
6	0	0	0	0	494	
7	0	0	0	0	483	
8	0	0	0	0	487	
9	0	0	0	0	483	
10	0	0	0	0	496	
11	0	0	0	0	511	
12	0	0	0	0	531	
13	0	0	0	0	544	
14	0	0	0	0	569	
15	0	0	0	0	585	
0	0	0	0	0	566	
1	0	0	0	0	543	
2	0	0	0	0	579	
3	0	0	0	0	568	
4	0	0	0	0	515	
5	0	0	0	0	465	
6	0	0	0	0	434	
7	0	0	0	0	426	
8	0	0	0	0	403	
9	0	0	0	0	414	
10	0	0	0	0	437	
11	0	0	0	0	470	
12	0	0	0	0	487	
13	0	0	0	0	486	
14	0	0	0	0	483	
15	0	0	0	0	473	
0	0	0	0	0	492	
1	0	0	0	0	511	
2	0	0	0	0	522	
3	0	0	0	0	521	
4	0	0	0	0	542	
5	0	0	0	0	558	
6	0	0	0	0	567	
7	0	0	0	0	554	
8	0	0	0	0	524	
9	0	0	0	0	527	
10	0	0	0	0	546	
11	0	0	0	0	572	
12	0	0	0	0	560	
13	0	0	0	0	536	
14	0	0	0	0	535	
15	0	0	0	0	526	
0	0	0	0	0	506	
1	0	0	0	0	497	
2	0	0	0	0	497	
3	0	0	0	0	530	
4	0	0	0	0	584	
5	0	0	0	0	579	
6	0	0	0	0	554	
7	0	0	0	0	527	
8	0	0	0	0	499	
9	0	0	0	0	463	
10	0	0	0	0	442	
11	0	0	0	0	427	
12	0	0	0	0	435	
13	0	0	0	0	449	
14	0	0	0	0	467	
15	0	0	0	0	478	
0	0	0	0	0	479	
1	0	0	0	0	479	
2	0	0	0	0	488	
3	0	0	0	0	524	
4	0	0	0	0	541	
5	0	0	0	0	540	
6	0	0	0	0	527	
7	0	0	0	0	515	
8	0	0	0	0	514	
9	0	0	0	0	521	
10	0	0	0	0	521	
11	0	0	0	0	517	
12	0	0	0	0	529	
13	0	0	0	0	536	
14	0	0	0	0	547	
15	0	0	0	0	550	
0	0	0	0	0	542	
1	0	0	0	0	519	
2	0	0	0	0	515	
3	0	0	0	0	507	
4	0	0	0	0	516	
5	0	0	0	0	514	
6	0	0	0	0	511	
7	0	0	0	0	514	
8	0	0	0	0	517	
9	0	0	0	0	515	
10	0	0	0	0	518	
11	0	0	0	0	510	
12	0	0	0	0	506	
13	0	0	0	0	509	
14	0	0	0	0	501	
15	0	0	0	0	495	
0	0	0	0	0	512	
1	0	0	0	0	517	
2	0	0	0	0	513	
3	0	0	0	0	524	
4	0	0	0	0	546	
5	0	0	0	0	559	
6	0	0	0	0	560	
7	0	0	0	0	568	
8	0	0	0	0	550	
9	0	0	0	0	526	
10	0	0	0	0	525	
11	0	0	0	0	516	
12	0	0	0	0	495	
13	0	0	0	0	480	
14	0	0	0	0	466	
15	0	0	0	0	443	
0	0	0	0	0	441	
1	0	0	0	0	448	
2	0	0	0	0	481	
3	0	0	0	0	521	
4	0	0	0	0	561	
5	0	0	0	0	579	
6	0	0	0	0	566	
7	0	0	0	0	553	
8	0	0	0	0	544	
9	0	0	0	0	518	
10	0	0	0	0	478	
11	0	0	0	0	460	
12	0	0	0	0	444	
13	0	0	0	0	408	
14	0	0	0	0	407	
15	0	0	0	0	413	
0	0	0	0	0	438	
1	0	0	0	0	452	
2	0	0	0	0	488	
3	0	0	0	0	537	
4	0	0	0	0	551	
5	0	0	0	0	560	
6	0	0	0	0	579	
7	0	0	0	0	561	
8	0	0	0	0	552	
9	0	0	0	0	556	
10	0	0	0	0	561	
11	0	0	0	0	532	
12	0	0	0	0	516	
13	0	0	0	0	512	
14	0	0	0	0	488	
15	0	0	0	0	482	
0	0	0	0	0	483	
1	0	0	0	0	526	
2	0	0	0	0	568	
3	0	0	0	0	576	
4	0	0	0	0	550	
5	0	0	0	0	533	
6	0	0	0	0	518	
7	0	0	0	0	504	
8	0	0	0	0	502	
9	0	0	0	0	501	
10	0	0	0	0	491	
11	0	0	0	0	471	
12	0	0	0	0	466	
13	0	0	0	0	467	
14	0	0	0	0	476	
15	0	0	0	0	484	
0	0	0	0	0	497	
1	0	0	0	0	519	
2	0	0	0	0	524	
3	0	0	0	0	536	
4	0	0	0	0	555	
5	0	0	0	0	562	
6	0	0	0	0	564	
7	0	0	0	0	560	
8	0	0	0	0	569	
9	0	0	0	0	556	
10	0	0	0	0	524	
11	0	0	0	0	522	
12	0	0	0	0	554	
13	0	0	0	0	543	
14	0	0	0	0	508	
15	0	0	0	0	471	
0	0	0	0	0	451	
1	0	0	0	0	439	
2	0	0	0	0	438	
3	0	0	0	0	443	
4	0	0	0	0	458	
5	0	0	0	0	476	
6	0	0	0	0	509	
7	0	0	0	0	527	
8	0	0	0	0	560	
9	0	0	0	0	605	
10	0	0	0	0	613	
11	0	0	0	0	571	
12	0	0	0	0	504	
13	0	0	0	0	459	
14	0	0	0	0	449	
15	0	0	0	0	462	
0	0	0	0	0	439	
1	0	0	0	0	425	
2	0	0	0	0	442	
3	0	0	0	0	457	
4	0	0	0	0	506	
5	0	0	0	0	546	
6	0	0	0	0	577	
7	0	0	0	0	615	
8	0	0	0	0	616	
9	0	0	0	0	575	
10	0	0	0	0	531	
11	0	0	0	0	500	
12	0	0	0	0	522	
13	0	0	0	0	515	
14	0	0	0	0	520	
15	0	0	0	0	515	
0	0	0	0	0	493	
1	0	0	0	0	503	
2	0	0	0	0	529	
3	0	0	0	0	500	
4	0	0	0	0	469	
5	0	0	0	0	472	
6	0	0	0	0	476	
7	0	0	0	0	476	
8	0	0	0	0	476	
9	0	0	0	0	479	
10	0	0	0	0	487	
11	0	0	0	0	503	
12	0	0	0	0	523	
13	0	0	0	0	520	
14	0	0	0	0	535	
15	0	0	0	0	527	
0	0	0	0	0	509	
1	0	0	0	0	503	
2	0	0	0	0	505	
3	0	0	0	0	505	
4	0	0	0	0	516	
5	0	0	0	0	526	
6	0	0	0	0	543	
7	0	0	0	0	562	
8	0	0	0	0	590	
9	0	0	0	0	600	
10	0	0	0	0	608	
11	0	0	0	0	595	
12	0	0	0	0	544	
13	0	0	0	0	494	
14	0	0	0	0	460	
15	0	0	0	0	446	
0	0	0	0	0	438	
1	0	0	0	0	435	
2	0	0	0	0	434	
3	0	0	0	0	427	
4	0	0	0	0	437	
5	0	0	0	0	446	
6	0	0	0	0	451	
7	0	0	0	0	471	
8	0	0	0	0	512	
9	0	0	0	0	537	
10	0	0	0	0	549	
11	0	0	0	0	550	
12	0	0	0	0	567	
13	0	0	0	0	580	
14	0	0	0	0	575	
15	0	0	0	0	551	
0	0	0	0	0	535	
1	0	0	0	0	525	
2	0	0	0	0	513	
3	0	0	0	0	503	
4	0	0	0	0	507	
5	0	0	0	0	516	
6	0	0	0	0	518	
7	0	0	0	0	531	
8	0	0	0	0	554	
9	0	0	0	0	567	
10	0	0	0	0	565	
11	0	0	0	0	553	
12	0	0	0	0	541	
13	0	0	0	0	551	
14	0	0	0	0	567	
15	0	0	0	0	564	
0	0	0	0	0	515	
1	0	0	0	0	495	
2	0	0	0	0	489	
3	0	0	0	0	460	
4	0	0	0	0	447	
5	0	0	0	0	440	
6	0	0	0	0	455	
7	0	0	0	0	452	
8	0	0	0	0	440	
9	0	0	0	0	445	
10	0	0	0	0	444	
11	0	0	0	0	456	
12	0	0	0	0	448	
13	0	0	0	0	464	
14	0	0	0	0	472	
15	0	0	0	0	489	
0	0	0	0	0	513	
1	0	0	0	0	525	
2	0	0	0	0	551	
3	0	0	0	0	551	
4	0	0	0	0	549	
5	0	0	0	0	554	
6	0	0	0	0	564	
7	0	0	0	0	565	
8	0	0	0	0	571	
9	0	0	0	0	599	
10	0	0	0	0	594	
11	0	0	0	0	601	
12	0	0	0	0	587	
13	0	0	0	0	540	
14	0	0	0	0	487	
15	0	0	0	0	457	
0	0	0	0	0	443	
1	0	0	0	0	461	
2	0	0	0	0	466	
3	0	0	0	0	500	
4	0	0	0	0	564	
5	0	0	0	0	575	
6	0	0	0	0	543	
7	0	0	0	0	493	
8	0	0	0	0	475	
9	0	0	0	0	440	
10	0	0	0	0	419	
11	0	0	0	0	430	
12	0	0	0	0	457	
13	0	0	0	0	486	
14	0	0	0	0	507	
15	0	0	0	0	507	
0	0	0	0	0	497	
1	0	0	0	0	481	
2	0	0	0	0	501	
3	0	0	0	0	509	
4	0	0	0	0	514	
5	0	0	0	0	519	
6	0	0	0	0	518	
7	0	0	0	0	521	
8	0	0	0	0	531	
9	0	0	0	0	528	
10	0	0	0	0	527	
11	0	0	0	0	524	
12	0	0	0	0	546	
13	0	0	0	0	566	
14	0	0	0	0	568	
15	0	0	0	0	567	
0	0	0	0	0	588	
1	0	0	0	0	605	
2	0	0	0	0	598	
3	0	0	0	0	581	
4	0	0	0	0	551	
5	0	0	0	0	502	
6	0	0	0	0	452	
7	0	0	0	0	447	
8	0	0	0	0	457	
9	0	0	0	0	474	
10	0	0	0	0	472	
11	0	0	0	0	464	
12	0	0	0	0	441	
13	0	0	0	0	465	
14	0	0	0	0	493	
15	0	0	0	0	494	
0	0	0	0	0	485	
1	0	0	0	0	479	
2	0	0	0	0	475	
3	0	0	0	0	471	
4	0	0	0	0	466	
5	0	0	0	0	474	
6	0	0	0	0	493	
7	0	0	0	0	507	
8	0	0	0	0	526	
9	0	0	0	0	564	
10	0	0	0	0	584	
11	0	0	0	0	603	
12	0	0	0	0	603	
13	0	0	0	0	560	
14	0	0	0	0	515	
15	0	0	0	0	491	
0	0	0	0	0	493	
1	0	0	0	0	507	
2	0	0	0	0	533	
3	0	0	0	0	547	
4	0	0	0	0	548	
5	0	0	0	0	519	
6	0	0	0	0	483	
7	0	0	0	0	455	
8	0	0	0	0	474	
9	0	0	0	0	503	
10	0	0	0	0	543	
11	0	0	0	0	576	
12	0	0	0	0	603	
13	0	0	0	0	587	
14	0	0	0	0	560	
15	0	0	0	0	551	
0	0	0	0	0	510	
1	0	0	0	0	459	
2	0	0	0	0	416	
3	0	0	0	0	388	
4	0	0	0	0	382	
5	0	0	0	0	397	
6	0	0	0	0	416	
7	0	0	0	0	442	
8	0	0	0	0	459	
9	0	0	0	0	463	
10	0	0	0	0	482	
11	0	0	0	0	512	
12	0	0	0	0	535	
13	0	0	0	0	557	
14	0	0	0	0	575	
15	0	0	0	0	579	
0	0	0	0	0	579	
1	0	0	0	0	602	
2	0	0	0	0	606	
3	0	0	0	0	597	
4	0	0	0	0	587	
5	0	0	0	0	577	
6	0	0	0	0	557	
7	0	0	0	0	530	
8	0	0	0	0	512	
9	0	0	0	0	521	
10	0	0	0	0	547	
11	0	0	0	0	554	
12	0	0	0	0	511	
13	0	0	0	0	473	
14	0	0	0	0	455	
15	0	0	0	0	462	
0	0	0	0	0	459	
1	0	0	0	0	453	
2	0	0	0	0	456	
3	0	0	0	0	443	
4	0	0	0	0	439	
5	0	0	0	0	456	
6	0	0	0	0	481	
7	0	0	0	0	502	
8	0	0	0	0	528	
9	0	0	0	0	535	
10	0	0	0	0	510	
11	0	0	0	0	515	
12	0	0	0	0	517	
13	0	0	0	0	507	
14	0	0	0	0	539	
15	0	0	0	0	562	
0	0	0	0	0	566	
1	0	0	0	0	582	
2	0	0	0	0	578	
3	0	0	0	0	544	
4	0	0	0	0	530	
5	0	0	0	0	501	
6	0	0	0	0	488	
7	0	0	0	0	469	
8	0	0	0	0	458	
9	0	0	0	0	465	
10	0	0	0	0	481	
11	0	0	0	0	496	
12	0	0	0	0	490	
13	0	0	0	0	519	
14	0	0	0	0	529	
15	0	0	0	0	508	
0	0	0	0	0	502	
1	0	0	0	0	510	
2	0	0	0	0	517	
3	0	0	0	0	519	
4	0	0	0	0	534	
5	0	0	0	0	541	
6	0	0	0	0	519	
7	0	0	0	0	509	
8	0	0	0	0	516	
9	0	0	0	0	507	
10	0	0	0	0	502	
11	0	0	0	0	510	
12	0	0	0	0	515	
13	0	0	0	0	510	
14	0	0	0	0	500	
15	0	0	0	0	477	
0	0	0	0	0	455	
1	0	0	0	0	448	
2	0	0	0	0	476	
3	0	0	0	0	497	
4	0	0	0	0	511	
5	0	0	0	0	520	
6	0	0	0	0	530	
7	0	0	0	0	533	
8	0	0	0	0	544	
9	0	0	0	0	556	
10	0	0	0	0	561	
11	0	0	0	0	560	
12	0	0	0	0	576	
13	0	0	0	0	612	
14	0	0	0	0	623	
15	0	0	0	0	627	
0	0	0	0	0	603	
1	0	0	0	0	566	
2	0	0	0	0	520	
3	0	0	0	0	468	
4	0	0	0	0	418	
5	0	0	0	0	394	
6	0	0	0	0	397	
7	0	0	0	0	392	
8	0	0	0	0	410	
9	0	0	0	0	436	
10	0	0	0	0	448	
11	0	0	0	0	453	
12	0	0	0	0	483	
13	0	0	0	0	502	
14	0	0	0	0	492	
15	0	0	0	0	481	
0	0	0	0	0	506	
1	0	0	0	0	552	
2	0	0	0	0	584	
3	0	0	0	0	590	
4	0	0	0	0	575	
5	0	0	0	0	558	
6	0	0	0	0	533	
7	0	0	0	0	527	
8	0	0	0	0	528	
9	0	0	0	0	533	
10	0	0	0	0	538	
11	0	0	0	0	541	
12	0	0	0	0	540	
13	0	0	0	0	534	
14	0	0	0	0	521	
15	0	0	0	0	502	
0	0	0	0	0	483	
1	0	0	0	0	486	
2	0	0	0	0	488	
3	0	0	0	0	483	
4	0	0	0	0	500	
5	0	0	0	0	515	
6	0	0	0	0	548	
7	0	0	0	0	553	
8	0	0	0	0	565	
9	0	0	0	0	570	
10	0	0	0	0	535	
11	0	0	0	0	501	
12	0	0	0	0	467	
13	0	0	0	0	449	
14	0	0	0	0	432	
15	0	0	0	0	424	
0	0	0	0	0	428	
1	0	0	0	0	455	
2	0	0	0	0	511	
3	0	0	0	0	535	
4	0	0	0	0	553	
5	0	0	0	0	532	
6	0	0	0	0	523	
7	0	0	0	0	524	
8	0	0	0	0	521	
9	0	0	0	0	524	
10	0	0	0	0	509	
11	0	0	0	0	491	
12	0	0	0	0	488	
13	0	0	0	0	484	
14	0	0	0	0	490	
15	0	0	0	0	497	
0	0	0	0	0	527	
1	0	0	0	0	555	
2	0	0	0	0	547	
3	0	0	0	0	547	
4	0	0	0	0	528	
5	0	0	0	0	505	
6	0	0	0	0	497	
7	0	0	0	0	519	
8	0	0	0	0	531	
9	0	0	0	0	557	
10	0	0	0	0	570	
11	0	0	0	0	568	
12	0	0	0	0	572	
13	0	0	0	0	548	
14	0	0	0	0	511	
15	0	0	0	0	474	
0	0	0	0	0	468	
1	0	0	0	0	449	
2	0	0	0	0	452	
3	0	0	0	0	461	
4	0	0	0	0	478	
5	0	0	0	0	496	
6	0	0	0	0	521	
7	0	0	0	0	550	
8	0	0	0	0	568	
9	0	0	0	0	554	
10	0	0	0	0	545	
11	0	0	0	0	538	
12	0	0	0	0	527	
13	0	0	0	0	508	
14	0	0	0	0	491	
15	0	0	0	0	479	
0	0	0	0	0	462	
1	0	0	0	0	454	
2	0	0	0	0	454	
3	0	0	0	0	448	
4	0	0	0	0	467	
5	0	0	0	0	487	
6	0	0	0	0	511	
7	0	0	0	0	533	
8	0	0	0	0	564	
9	0	0	0	0	559	
10	0	0	0	0	538	
11	0	0	0	0	521	
12	0	0	0	0	491	
13	0	0	0	0	480	
14	0	0	0	0	478	
15	0	0	0	0	501	
0	0	0	0	0	530	
1	0	0	0	0	539	
2	0	0	0	0	524	
3	0	0	0	0	498	
4	0	0	0	0	523	
5	0	0	0	0	561	
6	0	0	0	0	580	
7	0	0	0	0	587	
8	0	0	0	0	568	
9	0	0	0	0	550	
10	0	0	0	0	530	
11	0	0	0	0	494	
12	0	0	0	0	478	
13	0	0	0	0	462	
14	0	0	0	0	444	
15	0	0	0	0	440	
0	0	0	0	0	456	
1	0	0	0	0	463	
2	0	0	0	0	479	
3	0	0	0	0	511	
4	0	0	0	0	533	
5	0	0	0	0	543	
6	0	0	0	0	528	
7	0	0	0	0	517	
8	0	0	0	0	525	
9	0	0	0	0	530	
10	0	0	0	0	528	
11	0	0	0	0	526	
12	0	0	0	0	529	
13	0	0	0	0	525	
14	0	0	0	0	542	
15	0	0	0	0	560	
0	0	0	0	0	557	
1	0	0	0	0	539	
2	0	0	0	0	513	
3	0	0	0	0	521	
4	0	0	0	0	529	
5	0	0	0	0	503	
6	0	0	0	0	479	
7	0	0	0	0	476	
8	0	0	0	0	478	
9	0	0	0	0	463	
10	0	0	0	0	432	
11	0	0	0	0	435	
12	0	0	0	0	454	
13	0	0	0	0	484	
14	0	0	0	0	496	
15	0	0	0	0	512	
0	0	0	0	0	569	
1	0	0	0	0	590	
2	0	0	0	0	598	
3	0	0	0	0	589	
4	0	0	0	0	568	
5	0	0	0	0	542	
6	0	0	0	0	498	
7	0	0	0	0	475	
8	0	0	0	0	498	
9	0	0	0	0	515	
10	0	0	0	0	505	
11	0	0	0	0	486	
12	0	0	0	0	475	
13	0	0	0	0	472	
14	0	0	0	0	452	
15	0	0	0	0	459	
0	0	0	0	0	452	
1	0	0	0	0	480	
2	0	0	0	0	525	
3	0	0	0	0	567	
4	0	0	0	0	578	
5	0	0	0	0	575	
6	0	0	0	0	581	
7	0	0	0	0	582	
8	0	0	0	0	551	
9	0	0	0	0	531	
10	0	0	0	0	513	
11	0	0	0	0	486	
12	0	0	0	0	477	
13	0	0	0	0	474	
14	0	0	0	0	470	
15	0	0	0	0	472	
0	0	0	0	0	476	
1	0	0	0	0	484	
2	0	0	0	0	503	
3	0	0	0	0	543	
4	0	0	0	0	557	
5	0	0	0	0	549	
6	0	0	0	0	547	
7	0	0	0	0	523	
8	0	0	0	0	499	
9	0	0	0	0	479	
10	0	0	0	0	487	
11	0	0	0	0	518	
12	0	0	0	0	549	
13	0	0	0	0	584	
14	0	0	0	0	560	
15	0	0	0	0	528	
0	0	0	0	0	506	
1	0	0	0	0	475	
2	0	0	0	0	450	
3	0	0	0	0	434	
4	0	0	0	0	452	
5	0	0	0	0	467	
6	0	0	0	0	488	
7	0	0	0	0	501	
8	0	0	0	0	517	
9	0	0	0	0	519	
10	0	0	0	0	523	
11	0	0	0	0	524	
12	0	0	0	0	532	
13	0	0	0	0	530	
14	0	0	0	0	534	
15	0	0	0	0	528	
0	0	0	0	0	526	
1	0	0	0	0	513	
2	0	0	0	0	489	
3	0	0	0	0	475	
4	0	0	0	0	467	
5	0	0	0	0	476	
6	0	0	0	0	505	
7	0	0	0	0	522	
8	0	0	0	0	535	
9	0	0	0	0	537	
10	0	0	0	0	555	
11	0	0	0	0	570	
12	0	0	0	0	557	
13	0	0	0	0	550	
14	0	0	0	0	556	
15	0	0	0	0	547	
0	0	0	0	0	539	
1	0	0	0	0	524	
2	0	0	0	0	508	
3	0	0	0	0	491	
4	0	0	0	0	468	
5	0	0	0	0	464	
6	0	0	0	0	470	
7	0	0	0	0	472	
8	0	0	0	0	473	
9	0	0	0	0	473	
10	0	0	0	0	502	
11	0	0	0	0	535	
12	0	0	0	0	538	
13	0	0	0	0	536	
14	0	0	0	0	536	
15	0	0	0	0	534	
0	0	0	0	0	528	
1	0	0	0	0	510	
2	0	0	0	0	498	
3	0	0	0	0	494	
4	0	0	0	0	479	
5	0	0	0	0	466	
6	0	0	0	0	485	
7	0	0	0	0	497	
8	0	0	0	0	517	
9	0	0	0	0	523	
10	0	0	0	0	543	
11	0	0	0	0	563	
12	0	0	0	0	572	
13	0	0	0	0	576	
14	0	0	0	0	557	
15	0	0	0	0	533	
0	0	0	0	0	494	
1	0	0	0	0	468	
2	0	0	0	0	472	
3	0	0	0	0	487	
4	0	0	0	0	493	
5	0	0	0	0	499	
6	0	0	0	0	513	
7	0	0	0	0	530	
8	0	0	0	0	510	
9	0	0	0	0	484	
10	0	0	0	0	481	
11	0	0	0	0	482	
12	0	0	0	0	482	
13	0	0	0	0	496	
14	0	0	0	0	497	
15	0	0	0	0	498	
0	0	0	0	0	504	
1	0	0	0	0	501	
2	0	0	0	0	500	
3	0	0	0	0	484	
4	0	0	0	0	471	
5	0	0	0	0	486	
6	0	0	0	0	505	
7	0	0	0	0	545	
8	0	0	0	0	572	
9	0	0	0	0	589	
10	0	0	0	0	580	
11	0	0	0	0	558	
12	0	0	0	0	549	
13	0	0	0	0	549	
14	0	0	0	0	548	
15	0	0	0	0	526	
0	0	0	0	0	512	
1	0	0	0	0	491	
2	0	0	0	0	480	
3	0	0	0	0	485	
4	0	0	0	0	514	
5	0	0	0	0	528	
6	0	0	0	0	517	
7	0	0	0	0	504	
8	0	0	0	0	487	
9	0	0	0	0	486	
10	0	0	0	0	478	
11	0	0	0	0	473	
12	0	0	0	0	485	
13	0	0	0	0	504	
14	0	0	0	0	529	
15	0	0	0	0	530	
0	0	0	0	0	502	
1	0	0	0	0	484	
2	0	0	0	0	496	
3	0	0	0	0	509	
4	0	0	0	0	516	
5	0	0	0	0	505	
6	0	0	0	0	505	
7	0	0	0	0	504	
8	0	0	0	0	508	
9	0	0	0	0	524	
10	0	0	0	0	546	
11	0	0	0	0	570	
12	0	0	0	0	593	
13	0	0	0	0	574	
14	0	0	0	0	542	
15	0	0	0	0	506	
0	0	0	0	0	493	
1	0	0	0	0	476	
2	0	0	0	0	461	
3	0	0	0	0	456	
4	0	0	0	0	452	
5	0	0	0	0	454	
6	0	0	0	0	462	
7	0	0	0	0	476	
8	0	0	0	0	511	
9	0	0	0	0	530	
10	0	0	0	0	542	
11	0	0	0	0	564	
12	0	0	0	0	551	
13	0	0	0	0	527	
14	0	0	0	0	528	
15	0	0	0	0	532	
0	0	0	0	0	522	
1	0	0	0	0	508	
2	0	0	0	0	497	
3	0	0	0	0	492	
4	0	0	0	0	505	
5	0	0	0	0	510	
6	0	0	0	0	517	
7	0	0	0	0	525	
8	0	0	0	0	531	
9	0	0	0	0	531	
10	0	0	0	0	530	
11	0	0	0	0	559	
12	0	0	0	0	589	
13	0	0	0	0	582	
14	0	0	0	0	552	
15	0	0	0	0	523	
0	0	0	0	0	496	
1	0	0	0	0	482	
2	0	0	0	0	477	
3	0	0	0	0	455	
4	0	0	0	0	464	
5	0	0	0	0	478	
6	0	0	0	0	487	
7	0	0	0	0	484	
8	0	0	0	0	478	
9	0	0	0	0	479	
10	0	0	0	0	498	
11	0	0	0	0	510	
12	0	0	0	0	499	
13	0	0	0	0	477	
14	0	0	0	0	481	
15	0	0	0	0	495	
0	0	0	0	0	499	
1	0	0	0	0	511	
2	0	0	0	0	529	
3	0	0	0	0	542	
4	0	0	0	0	556	
5	0	0	0	0	558	
6	0	0	0	0	521	
7	0	0	0	0	513	
8	0	0	0	0	525	
9	0	0	0	0	565	
10	0	0	0	0	574	
11	0	0	0	0	550	
12	0	0	0	0	524	
13	0	0	0	0	503	
