# OpenSignals Text File Format. Version 1
# {"98:D3:71:FE:37:4F": {"position": 0, "device": "bitalino_rev", "device name": "98:D3:71:FE:37:4F", "device connection": "BTH98:D3:71:FE:37:4F", "sampling rate": 1000, "resolution": [4, 1, 1, 1, 1, 10, 10], "firmware version": 1282, "comments": "", "keywords": "", "mode": 0, "sync interval": 2, "date": "2026-6-12", "time": "14:57:45.724", "channels": [1, 2], "sensor": ["ECGBIT", "EDABITREV"], "label": ["A1", "A2"], "column": ["nSeq", "I1", "I2", "O1", "O2", "A1", "A2"], "special": [{}, {}], "digital IO": [0, 0, 1, 1]}}
# EndOfHeader
0	0	0	0	0	491	570	
1	0	0	0	0	495	570	
2	0	0	0	0	497	569	
3	0	0	0	0	497	569	
4	0	0	0	0	498	570	
5	0	0	0	0	499	570	
6	0	0	0	0	501	570	
7	0	0	0	0	500	570	
8	0	0	0	0	502	570	
9	0	0	0	0	503	570	
10	0	0	0	0	504	570	
11	0	0	0	0	506	570	
12	0	0	0	0	505	569	
13	0	0	0	0	504	569	
14	0	0	0	0	501	570	
15	0	0	0	0	498	569	
0	0	0	0	0	495	569	
1	0	0	0	0	491	570	
2	0	0	0	0	487	569	
3	0	0	0	0	485	569	
4	0	0	0	0	484	569	
5	0	0	0	0	485	570	
6	0	0	0	0	487	570	
7	0	0	0	0	489	569	
8	0	0	0	0	493	570	
9	0	0	0	0	495	570	
10	0	0	0	0	498	569	
11	0	0	0	0	500	569	
12	0	0	0	0	504	569	
13	0	0	0	0	507	569	
14	0	0	0	0	509	569	
15	0	0	0	0	511	570	
0	0	0	0	0	511	569	
1	0	0	0	0	512	569	
2	0	0	0	0	511	570	
3	0	0	0	0	512	569	
4	0	0	0	0	512	569	
5	0	0	0	0	513	570	
6	0	0	0	0	512	569	
7	0	0	0	0	513	570	
8	0	0	0	0	513	569	
9	0	0	0	0	512	569	
10	0	0	0	0	514	569	
11	0	0	0	0	519	569	
12	0	0	0	0	522	570	
13	0	0	0	0	524	569	
14	0	0	0	0	524	569	
15	0	0	0	0	525	569	
0	0	0	0	0	526	569	
1	0	0	0	0	524	569	
2	0	0	0	0	524	569	
3	0	0	0	0	524	570	
4	0	0	0	0	524	570	
5	0	0	0	0	524	569	
6	0	0	0	0	524	569	
7	0	0	0	0	523	569	
8	0	0	0	0	524	570	
9	0	0	0	0	527	569	
10	0	0	0	0	527	569	
11	0	0	0	0	528	569	
12	0	0	0	0	531	570	
13	0	0	0	0	533	569	
14	0	0	0	0	534	569	
15	0	0	0	0	535	569	
0	0	0	0	0	534	570	
1	0	0	0	0	534	569	
2	0	0	0	0	533	570	
3	0	0	0	0	532	569	
4	0	0	0	0	533	569	
5	0	0	0	0	532	569	
6	0	0	0	0	532	569	
7	0	0	0	0	533	569	
8	0	0	0	0	535	569	
9	0	0	0	0	535	569	
10	0	0	0	0	535	570	
11	0	0	0	0	537	569	
12	0	0	0	0	537	569	
13	0	0	0	0	538	569	
14	0	0	0	0	539	569	
15	0	0	0	0	539	569	
0	0	0	0	0	539	569	
1	0	0	0	0	539	569	
2	0	0	0	0	537	569	
3	0	0	0	0	537	569	
4	0	0	0	0	538	569	
5	0	0	0	0	537	569	
6	0	0	0	0	536	569	
7	0	0	0	0	535	569	
8	0	0	0	0	536	569	
9	0	0	0	0	538	570	
10	0	0	0	0	538	569	
11	0	0	0	0	538	569	
12	0	0	0	0	540	569	
13	0	0	0	0	541	569	
14	0	0	0	0	542	570	
15	0	0	0	0	543	569	
0	0	0	0	0	545	569	
1	0	0	0	0	545	569	
2	0	0	0	0	546	569	
3	0	0	0	0	545	569	
4	0	0	0	0	541	569	
5	0	0	0	0	540	569	
6	0	0	0	0	540	569	
7	0	0	0	0	539	569	
8	0	0	0	0	539	569	
9	0	0	0	0	538	569	
10	0	0	0	0	539	569	
11	0	0	0	0	540	569	
12	0	0	0	0	542	569	
13	0	0	0	0	542	570	
14	0	0	0	0	543	569	
15	0	0	0	0	543	569	
0	0	0	0	0	543	569	
1	0	0	0	0	542	569	
2	0	0	0	0	540	569	
3	0	0	0	0	537	569	
4	0	0	0	0	536	569	
5	0	0	0	0	536	569	
6	0	0	0	0	536	569	
7	0	0	0	0	535	569	
8	0	0	0	0	534	569	
9	0	0	0	0	532	569	
10	0	0	0	0	531	569	
11	0	0	0	0	531	569	
12	0	0	0	0	532	569	
13	0	0	0	0	533	569	
14	0	0	0	0	533	569	
15	0	0	0	0	535	569	
0	0	0	0	0	536	569	
1	0	0	0	0	536	569	
2	0	0	0	0	536	569	
3	0	0	0	0	538	569	
4	0	0	0	0	537	569	
5	0	0	0	0	536	569	
6	0	0	0	0	535	569	
7	0	0	0	0	532	569	
8	0	0	0	0	530	569	
9	0	0	0	0	527	569	
10	0	0	0	0	527	569	
11	0	0	0	0	527	569	
12	0	0	0	0	527	569	
13	0	0	0	0	525	569	
14	0	0	0	0	524	569	
15	0	0	0	0	523	569	
0	0	0	0	0	523	569	
1	0	0	0	0	523	569	
2	0	0	0	0	523	569	
3	0	0	0	0	523	569	
4	0	0	0	0	522	569	
5	0	0	0	0	520	569	
6	0	0	0	0	517	569	
7	0	0	0	0	515	569	
8	0	0	0	0	513	569	
9	0	0	0	0	510	569	
10	0	0	0	0	508	569	
11	0	0	0	0	508	569	
12	0	0	0	0	510	569	
13	0	0	0	0	512	569	
14	0	0	0	0	513	569	
15	0	0	0	0	515	569	
0	0	0	0	0	515	569	
1	0	0	0	0	516	569	
2	0	0	0	0	517	569	
3	0	0	0	0	517	569	
4	0	0	0	0	517	569	
5	0	0	0	0	517	569	
6	0	0	0	0	516	569	
7	0	0	0	0	515	569	
8	0	0	0	0	515	569	
9	0	0	0	0	514	569	
10	0	0	0	0	514	569	
11	0	0	0	0	512	569	
12	0	0	0	0	512	569	
13	0	0	0	0	512	569	
14	0	0	0	0	513	569	
15	0	0	0	0	513	569	
0	0	0	0	0	513	569	
1	0	0	0	0	514	569	
2	0	0	0	0	515	569	
3	0	0	0	0	513	569	
4	0	0	0	0	512	569	
5	0	0	0	0	511	569	
6	0	0	0	0	511	569	
7	0	0	0	0	510	569	
8	0	0	0	0	509	569	
9	0	0	0	0	508	569	
10	0	0	0	0	506	569	
11	0	0	0	0	505	569	
12	0	0	0	0	505	569	
13	0	0	0	0	506	569	
14	0	0	0	0	507	569	
15	0	0	0	0	508	569	
0	0	0	0	0	509	569	
1	0	0	0	0	511	569	
2	0	0	0	0	511	569	
3	0	0	0	0	511	569	
4	0	0	0	0	510	569	
5	0	0	0	0	509	569	
6	0	0	0	0	506	569	
7	0	0	0	0	505	569	
8	0	0	0	0	504	569	
9	0	0	0	0	504	569	
10	0	0	0	0	502	569	
11	0	0	0	0	503	569	
12	0	0	0	0	502	569	
13	0	0	0	0	500	569	
14	0	0	0	0	500	569	
15	0	0	0	0	500	569	
0	0	0	0	0	503	569	
1	0	0	0	0	505	569	
2	0	0	0	0	506	569	
3	0	0	0	0	508	569	
4	0	0	0	0	511	569	
5	0	0	0	0	511	569	
6	0	0	0	0	510	569	
7	0	0	0	0	509	569	
8	0	0	0	0	506	569	
9	0	0	0	0	504	569	
10	0	0	0	0	503	569	
11	0	0	0	0	503	569	
12	0	0	0	0	500	569	
13	0	0	0	0	499	569	
14	0	0	0	0	497	569	
15	0	0	0	0	498	569	
0	0	0	0	0	500	569	
1	0	0	0	0	504	569	
2	0	0	0	0	507	569	
3	0	0	0	0	510	569	
4	0	0	0	0	513	569	
5	0	0	0	0	514	569	
6	0	0	0	0	515	569	
7	0	0	0	0	514	569	
8	0	0	0	0	513	569	
9	0	0	0	0	512	569	
10	0	0	0	0	511	569	
11	0	0	0	0	509	569	
12	0	0	0	0	507	569	
13	0	0	0	0	504	569	
14	0	0	0	0	503	569	
15	0	0	0	0	501	569	
0	0	0	0	0	501	569	
1	0	0	0	0	502	569	
2	0	0	0	0	503	569	
3	0	0	0	0	504	569	
4	0	0	0	0	505	569	
5	0	0	0	0	506	569	
6	0	0	0	0	507	569	
7	0	0	0	0	507	569	
8	0	0	0	0	508	569	
9	0	0	0	0	508	569	
10	0	0	0	0	507	569	
11	0	0	0	0	508	569	
12	0	0	0	0	508	569	
13	0	0	0	0	508	569	
14	0	0	0	0	508	569	
15	0	0	0	0	508	569	
0	0	0	0	0	507	569	
1	0	0	0	0	507	569	
2	0	0	0	0	508	569	
3	0	0	0	0	508	569	
4	0	0	0	0	508	569	
5	0	0	0	0	511	569	
6	0	0	0	0	513	569	
7	0	0	0	0	514	569	
8	0	0	0	0	515	569	
9	0	0	0	0	515	569	
10	0	0	0	0	515	569	
11	0	0	0	0	516	569	
12	0	0	0	0	516	569	
13	0	0	0	0	516	569	
14	0	0	0	0	515	569	
15	0	0	0	0	514	569	
0	0	0	0	0	513	569	
1	0	0	0	0	511	569	
2	0	0	0	0	511	569	
3	0	0	0	0	511	569	
4	0	0	0	0	512	569	
5	0	0	0	0	513	569	
6	0	0	0	0	515	569	
7	0	0	0	0	517	569	
8	0	0	0	0	518	569	
9	0	0	0	0	518	569	
10	0	0	0	0	518	569	
11	0	0	0	0	517	569	
12	0	0	0	0	516	569	
13	0	0	0	0	515	569	
14	0	0	0	0	513	569	
15	0	0	0	0	513	569	
0	0	0	0	0	513	569	
1	0	0	0	0	514	569	
2	0	0	0	0	515	569	
3	0	0	0	0	515	569	
4	0	0	0	0	516	569	
5	0	0	0	0	518	569	
6	0	0	0	0	519	569	
7	0	0	0	0	520	569	
8	0	0	0	0	520	569	
9	0	0	0	0	519	569	
10	0	0	0	0	517	569	
11	0	0	0	0	515	569	
12	0	0	0	0	513	568	
13	0	0	0	0	513	569	
14	0	0	0	0	512	568	
15	0	0	0	0	511	569	
0	0	0	0	0	510	569	
1	0	0	0	0	508	569	
2	0	0	0	0	508	569	
3	0	0	0	0	508	569	
4	0	0	0	0	508	569	
5	0	0	0	0	509	569	
6	0	0	0	0	510	568	
7	0	0	0	0	510	569	
8	0	0	0	0	508	569	
9	0	0	0	0	507	569	
10	0	0	0	0	506	569	
11	0	0	0	0	505	569	
12	0	0	0	0	504	569	
13	0	0	0	0	504	568	
14	0	0	0	0	504	569	
15	0	0	0	0	504	569	
0	0	0	0	0	504	569	
1	0	0	0	0	502	569	
2	0	0	0	0	500	569	
3	0	0	0	0	499	569	
4	0	0	0	0	501	569	
5	0	0	0	0	504	569	
6	0	0	0	0	505	569	
7	0	0	0	0	507	569	
8	0	0	0	0	508	569	
9	0	0	0	0	508	569	
10	0	0	0	0	507	569	
11	0	0	0	0	507	568	
12	0	0	0	0	508	568	
13	0	0	0	0	508	569	
14	0	0	0	0	509	569	
15	0	0	0	0	509	569	
0	0	0	0	0	508	569	
1	0	0	0	0	508	568	
2	0	0	0	0	508	568	
3	0	0	0	0	508	569	
4	0	0	0	0	509	568	
5	0	0	0	0	510	568	
6	0	0	0	0	510	569	
7	0	0	0	0	510	569	
8	0	0	0	0	509	569	
9	0	0	0	0	510	569	
10	0	0	0	0	508	569	
11	0	0	0	0	506	568	
12	0	0	0	0	504	568	
13	0	0	0	0	501	569	
14	0	0	0	0	499	568	
15	0	0	0	0	497	568	
0	0	0	0	0	496	568	
1	0	0	0	0	496	568	
2	0	0	0	0	496	569	
3	0	0	0	0	497	569	
4	0	0	0	0	498	569	
5	0	0	0	0	500	569	
6	0	0	0	0	503	568	
7	0	0	0	0	505	569	
8	0	0	0	0	506	568	
9	0	0	0	0	507	569	
10	0	0	0	0	508	568	
11	0	0	0	0	507	568	
12	0	0	0	0	507	569	
13	0	0	0	0	508	568	
14	0	0	0	0	507	569	
15	0	0	0	0	507	568	
0	0	0	0	0	507	569	
1	0	0	0	0	504	568	
2	0	0	0	0	504	568	
3	0	0	0	0	504	568	
4	0	0	0	0	506	568	
5	0	0	0	0	507	569	
6	0	0	0	0	509	569	
7	0	0	0	0	512	568	
8	0	0	0	0	514	568	
9	0	0	0	0	517	568	
10	0	0	0	0	518	569	
11	0	0	0	0	519	569	
12	0	0	0	0	519	568	
13	0	0	0	0	518	568	
14	0	0	0	0	517	569	
15	0	0	0	0	515	568	
0	0	0	0	0	513	569	
1	0	0	0	0	512	569	
2	0	0	0	0	511	569	
3	0	0	0	0	509	569	
4	0	0	0	0	510	568	
5	0	0	0	0	511	569	
6	0	0	0	0	513	568	
7	0	0	0	0	515	568	
8	0	0	0	0	518	568	
9	0	0	0	0	521	568	
10	0	0	0	0	523	569	
11	0	0	0	0	526	568	
12	0	0	0	0	528	568	
13	0	0	0	0	531	569	
14	0	0	0	0	534	568	
15	0	0	0	0	534	568	
0	0	0	0	0	534	568	
1	0	0	0	0	532	568	
2	0	0	0	0	532	568	
3	0	0	0	0	531	568	
4	0	0	0	0	531	568	
5	0	0	0	0	531	568	
6	0	0	0	0	529	568	
7	0	0	0	0	528	568	
8	0	0	0	0	527	568	
9	0	0	0	0	527	569	
10	0	0	0	0	529	568	
11	0	0	0	0	530	568	
12	0	0	0	0	531	568	
13	0	0	0	0	533	568	
14	0	0	0	0	536	568	
15	0	0	0	0	537	569	
0	0	0	0	0	537	568	
1	0	0	0	0	538	568	
2	0	0	0	0	537	568	
3	0	0	0	0	536	568	
4	0	0	0	0	534	568	
5	0	0	0	0	533	568	
6	0	0	0	0	532	568	
7	0	0	0	0	532	568	
8	0	0	0	0	532	568	
9	0	0	0	0	531	568	
10	0	0	0	0	531	568	
11	0	0	0	0	532	568	
12	0	0	0	0	532	568	
13	0	0	0	0	532	569	
14	0	0	0	0	531	568	
15	0	0	0	0	529	568	
0	0	0	0	0	528	568	
1	0	0	0	0	526	568	
2	0	0	0	0	524	568	
3	0	0	0	0	520	568	
4	0	0	0	0	518	568	
5	0	0	0	0	516	568	
6	0	0	0	0	515	568	
7	0	0	0	0	512	568	
8	0	0	0	0	510	568	
9	0	0	0	0	508	568	
10	0	0	0	0	507	568	
11	0	0	0	0	507	568	
12	0	0	0	0	503	568	
13	0	0	0	0	501	568	
14	0	0	0	0	498	568	
15	0	0	0	0	494	568	
0	0	0	0	0	490	568	
1	0	0	0	0	486	568	
2	0	0	0	0	482	568	
3	0	0	0	0	478	568	
4	0	0	0	0	475	568	
5	0	0	0	0	474	568	
6	0	0	0	0	473	568	
7	0	0	0	0	472	568	
8	0	0	0	0	471	568	
9	0	0	0	0	471	568	
10	0	0	0	0	472	568	
11	0	0	0	0	473	568	
12	0	0	0	0	475	568	
13	0	0	0	0	477	568	
14	0	0	0	0	478	568	
15	0	0	0	0	479	568	
0	0	0	0	0	480	568	
1	0	0	0	0	480	568	
2	0	0	0	0	479	568	
3	0	0	0	0	478	568	
4	0	0	0	0	477	568	
5	0	0	0	0	476	568	
6	0	0	0	0	475	568	
7	0	0	0	0	475	568	
8	0	0	0	0	475	568	
9	0	0	0	0	476	568	
10	0	0	0	0	478	568	
11	0	0	0	0	480	568	
12	0	0	0	0	482	568	
13	0	0	0	0	483	568	
14	0	0	0	0	484	568	
15	0	0	0	0	484	568	
0	0	0	0	0	485	568	
1	0	0	0	0	484	568	
2	0	0	0	0	484	568	
3	0	0	0	0	483	568	
4	0	0	0	0	481	568	
5	0	0	0	0	480	568	
6	0	0	0	0	480	568	
7	0	0	0	0	478	568	
8	0	0	0	0	478	568	
9	0	0	0	0	479	568	
10	0	0	0	0	481	568	
11	0	0	0	0	483	568	
12	0	0	0	0	486	568	
13	0	0	0	0	488	568	
14	0	0	0	0	490	568	
15	0	0	0	0	491	568	
0	0	0	0	0	491	568	
1	0	0	0	0	489	568	
2	0	0	0	0	486	568	
3	0	0	0	0	482	568	
4	0	0	0	0	477	568	
5	0	0	0	0	472	568	
6	0	0	0	0	467	568	
7	0	0	0	0	466	568	
8	0	0	0	0	465	568	
9	0	0	0	0	466	568	
10	0	0	0	0	468	568	
11	0	0	0	0	471	568	
12	0	0	0	0	475	568	
13	0	0	0	0	480	568	
14	0	0	0	0	485	568	
15	0	0	0	0	489	568	
0	0	0	0	0	497	568	
1	0	0	0	0	504	568	
2	0	0	0	0	512	568	
3	0	0	0	0	523	568	
4	0	0	0	0	535	568	
5	0	0	0	0	549	568	
6	0	0	0	0	564	568	
7	0	0	0	0	580	568	
8	0	0	0	0	599	568	
9	0	0	0	0	617	568	
10	0	0	0	0	637	568	
11	0	0	0	0	655	568	
12	0	0	0	0	673	568	
13	0	0	0	0	693	568	
14	0	0	0	0	711	568	
15	0	0	0	0	731	568	
0	0	0	0	0	749	568	
1	0	0	0	0	764	568	
2	0	0	0	0	775	568	
3	0	0	0	0	780	568	
4	0	0	0	0	782	568	
5	0	0	0	0	780	568	
6	0	0	0	0	773	568	
7	0	0	0	0	761	568	
8	0	0	0	0	742	568	
9	0	0	0	0	715	568	
10	0	0	0	0	686	568	
11	0	0	0	0	657	568	
12	0	0	0	0	629	568	
13	0	0	0	0	601	568	
14	0	0	0	0	575	568	
15	0	0	0	0	548	568	
0	0	0	0	0	521	568	
1	0	0	0	0	496	568	
2	0	0	0	0	472	568	
3	0	0	0	0	449	568	
4	0	0	0	0	430	568	
5	0	0	0	0	415	568	
6	0	0	0	0	403	568	
7	0	0	0	0	394	568	
8	0	0	0	0	387	568	
9	0	0	0	0	381	568	
10	0	0	0	0	378	568	
11	0	0	0	0	377	568	
12	0	0	0	0	377	568	
13	0	0	0	0	380	568	
14	0	0	0	0	383	568	
15	0	0	0	0	385	568	
0	0	0	0	0	388	568	
1	0	0	0	0	391	568	
2	0	0	0	0	395	568	
3	0	0	0	0	397	568	
4	0	0	0	0	400	568	
5	0	0	0	0	403	568	
6	0	0	0	0	406	568	
7	0	0	0	0	408	568	
8	0	0	0	0	409	568	
9	0	0	0	0	412	568	
10	0	0	0	0	415	568	
11	0	0	0	0	417	568	
12	0	0	0	0	422	568	
13	0	0	0	0	427	568	
14	0	0	0	0	433	568	
15	0	0	0	0	440	568	
0	0	0	0	0	446	568	
1	0	0	0	0	452	568	
2	0	0	0	0	456	568	
3	0	0	0	0	461	568	
4	0	0	0	0	464	568	
5	0	0	0	0	465	568	
6	0	0	0	0	468	568	
7	0	0	0	0	470	568	
8	0	0	0	0	470	568	
9	0	0	0	0	471	568	
10	0	0	0	0	472	568	
11	0	0	0	0	472	568	
12	0	0	0	0	473	568	
13	0	0	0	0	475	568	
14	0	0	0	0	476	568	
15	0	0	0	0	479	568	
0	0	0	0	0	481	568	
1	0	0	0	0	483	568	
2	0	0	0	0	486	568	
3	0	0	0	0	487	568	
4	0	0	0	0	490	568	
5	0	0	0	0	492	568	
6	0	0	0	0	491	568	
7	0	0	0	0	489	568	
8	0	0	0	0	487	568	
9	0	0	0	0	486	568	
10	0	0	0	0	485	568	
11	0	0	0	0	486	568	
12	0	0	0	0	486	568	
13	0	0	0	0	487	568	
14	0	0	0	0	487	568	
15	0	0	0	0	489	568	
0	0	0	0	0	492	568	
1	0	0	0	0	494	568	
2	0	0	0	0	495	568	
3	0	0	0	0	496	568	
4	0	0	0	0	496	568	
5	0	0	0	0	497	568	
6	0	0	0	0	497	568	
7	0	0	0	0	496	568	
8	0	0	0	0	496	568	
9	0	0	0	0	495	568	
10	0	0	0	0	495	568	
11	0	0	0	0	493	568	
12	0	0	0	0	493	568	
13	0	0	0	0	494	568	
14	0	0	0	0	495	568	
15	0	0	0	0	496	568	
0	0	0	0	0	497	568	
1	0	0	0	0	498	568	
2	0	0	0	0	499	568	
3	0	0	0	0	500	568	
4	0	0	0	0	503	568	
5	0	0	0	0	504	568	
6	0	0	0	0	504	568	
7	0	0	0	0	504	568	
8	0	0	0	0	502	568	
9	0	0	0	0	501	568	
10	0	0	0	0	499	568	
11	0	0	0	0	499	568	
12	0	0	0	0	499	568	
13	0	0	0	0	499	568	
14	0	0	0	0	500	568	
15	0	0	0	0	502	568	
0	0	0	0	0	503	568	
1	0	0	0	0	505	568	
2	0	0	0	0	506	568	
3	0	0	0	0	508	568	
4	0	0	0	0	510	568	
5	0	0	0	0	510	568	
6	0	0	0	0	510	568	
7	0	0	0	0	508	568	
8	0	0	0	0	508	568	
9	0	0	0	0	509	568	
10	0	0	0	0	508	568	
11	0	0	0	0	509	568	
12	0	0	0	0	508	568	
13	0	0	0	0	508	568	
14	0	0	0	0	507	568	
15	0	0	0	0	507	568	
0	0	0	0	0	506	568	
1	0	0	0	0	505	568	
2	0	0	0	0	504	568	
3	0	0	0	0	505	568	
4	0	0	0	0	507	568	
5	0	0	0	0	508	568	
6	0	0	0	0	508	568	
7	0	0	0	0	508	568	
8	0	0	0	0	508	568	
9	0	0	0	0	508	568	
10	0	0	0	0	507	568	
11	0	0	0	0	506	568	
12	0	0	0	0	506	568	
13	0	0	0	0	506	568	
14	0	0	0	0	506	568	
15	0	0	0	0	505	568	
0	0	0	0	0	505	568	
1	0	0	0	0	506	568	
2	0	0	0	0	508	568	
3	0	0	0	0	509	568	
4	0	0	0	0	511	568	
5	0	0	0	0	514	568	
6	0	0	0	0	516	568	
7	0	0	0	0	518	568	
8	0	0	0	0	519	568	
9	0	0	0	0	518	568	
10	0	0	0	0	518	568	
11	0	0	0	0	516	568	
12	0	0	0	0	515	568	
13	0	0	0	0	513	568	
14	0	0	0	0	510	568	
15	0	0	0	0	506	568	
0	0	0	0	0	504	568	
1	0	0	0	0	504	568	
2	0	0	0	0	503	568	
3	0	0	0	0	503	568	
4	0	0	0	0	505	568	
5	0	0	0	0	505	568	
6	0	0	0	0	507	568	
7	0	0	0	0	508	568	
8	0	0	0	0	510	568	
9	0	0	0	0	510	568	
10	0	0	0	0	510	568	
11	0	0	0	0	509	568	
12	0	0	0	0	509	568	
13	0	0	0	0	510	568	
14	0	0	0	0	510	568	
15	0	0	0	0	510	568	
0	0	0	0	0	510	568	
1	0	0	0	0	511	568	
2	0	0	0	0	513	568	
3	0	0	0	0	515	568	
4	0	0	0	0	516	568	
5	0	0	0	0	518	568	
6	0	0	0	0	518	568	
7	0	0	0	0	519	568	
8	0	0	0	0	520	568	
9	0	0	0	0	521	568	
10	0	0	0	0	520	568	
11	0	0	0	0	519	568	
12	0	0	0	0	519	568	
13	0	0	0	0	519	568	
14	0	0	0	0	518	568	
15	0	0	0	0	517	568	
0	0	0	0	0	517	568	
1	0	0	0	0	516	568	
2	0	0	0	0	517	568	
3	0	0	0	0	518	568	
4	0	0	0	0	520	568	
5	0	0	0	0	521	568	
6	0	0	0	0	522	568	
7	0	0	0	0	523	568	
8	0	0	0	0	524	568	
9	0	0	0	0	526	568	
10	0	0	0	0	526	568	
11	0	0	0	0	527	568	
12	0	0	0	0	527	568	
13	0	0	0	0	527	568	
14	0	0	0	0	526	568	
15	0	0	0	0	526	568	
0	0	0	0	0	526	568	
1	0	0	0	0	526	568	
2	0	0	0	0	526	568	
3	0	0	0	0	527	568	
4	0	0	0	0	527	568	
5	0	0	0	0	528	568	
6	0	0	0	0	528	568	
7	0	0	0	0	529	568	
8	0	0	0	0	529	568	
9	0	0	0	0	530	568	
10	0	0	0	0	531	568	
11	0	0	0	0	531	568	
12	0	0	0	0	531	568	
13	0	0	0	0	531	568	
14	0	0	0	0	531	568	
15	0	0	0	0	528	568	
0	0	0	0	0	527	568	
1	0	0	0	0	527	568	
2	0	0	0	0	526	568	
3	0	0	0	0	524	568	
4	0	0	0	0	524	568	
5	0	0	0	0	524	568	
6	0	0	0	0	524	568	
7	0	0	0	0	526	568	
8	0	0	0	0	527	568	
9	0	0	0	0	527	568	
10	0	0	0	0	527	568	
11	0	0	0	0	527	568	
12	0	0	0	0	526	568	
13	0	0	0	0	525	568	
14	0	0	0	0	524	568	
15	0	0	0	0	523	568	
0	0	0	0	0	523	568	
1	0	0	0	0	521	568	
2	0	0	0	0	522	568	
3	0	0	0	0	522	568	
4	0	0	0	0	523	568	
5	0	0	0	0	523	568	
6	0	0	0	0	523	568	
7	0	0	0	0	523	568	
8	0	0	0	0	525	568	
9	0	0	0	0	525	568	
10	0	0	0	0	525	568	
11	0	0	0	0	525	568	
12	0	0	0	0	523	568	
13	0	0	0	0	523	568	
14	0	0	0	0	521	568	
15	0	0	0	0	520	568	
0	0	0	0	0	519	568	
1	0	0	0	0	517	568	
2	0	0	0	0	515	568	
3	0	0	0	0	516	568	
4	0	0	0	0	517	568	
5	0	0	0	0	517	568	
6	0	0	0	0	516	568	
7	0	0	0	0	516	568	
8	0	0	0	0	517	568	
9	0	0	0	0	518	568	
10	0	0	0	0	518	568	
11	0	0	0	0	519	568	
12	0	0	0	0	521	568	
13	0	0	0	0	521	568	
14	0	0	0	0	521	568	
15	0	0	0	0	519	568	
0	0	0	0	0	518	568	
1	0	0	0	0	518	568	
2	0	0	0	0	517	568	
3	0	0	0	0	516	568	
4	0	0	0	0	514	568	
5	0	0	0	0	513	568	
6	0	0	0	0	512	568	
7	0	0	0	0	513	568	
8	0	0	0	0	514	568	
9	0	0	0	0	515	568	
10	0	0	0	0	516	568	
11	0	0	0	0	519	568	
12	0	0	0	0	519	568	
13	0	0	0	0	519	568	
14	0	0	0	0	518	568	
15	0	0	0	0	517	568	
0	0	0	0	0	516	568	
1	0	0	0	0	514	568	
2	0	0	0	0	513	568	
3	0	0	0	0	511	568	
4	0	0	0	0	508	568	
5	0	0	0	0	505	568	
6	0	0	0	0	504	568	
7	0	0	0	0	503	568	
8	0	0	0	0	503	568	
9	0	0	0	0	503	568	
10	0	0	0	0	504	568	
11	0	0	0	0	505	568	
12	0	0	0	0	508	568	
13	0	0	0	0	509	568	
14	0	0	0	0	509	568	
15	0	0	0	0	508	568	
0	0	0	0	0	507	568	
1	0	0	0	0	504	568	
2	0	0	0	0	503	568	
3	0	0	0	0	502	568	
4	0	0	0	0	501	568	
5	0	0	0	0	500	568	
6	0	0	0	0	499	568	
7	0	0	0	0	500	568	
8	0	0	0	0	501	568	
9	0	0	0	0	502	568	
10	0	0	0	0	502	568	
11	0	0	0	0	504	568	
12	0	0	0	0	505	568	
13	0	0	0	0	505	568	
14	0	0	0	0	505	568	
15	0	0	0	0	504	568	
0	0	0	0	0	504	568	
1	0	0	0	0	504	568	
2	0	0	0	0	503	568	
3	0	0	0	0	502	568	
4	0	0	0	0	500	568	
5	0	0	0	0	499	568	
6	0	0	0	0	500	568	
7	0	0	0	0	502	568	
8	0	0	0	0	502	568	
9	0	0	0	0	503	568	
10	0	0	0	0	504	568	
11	0	0	0	0	505	568	
12	0	0	0	0	505	568	
13	0	0	0	0	505	568	
14	0	0	0	0	504	568	
15	0	0	0	0	503	568	
0	0	0	0	0	503	568	
1	0	0	0	0	502	568	
2	0	0	0	0	502	568	
3	0	0	0	0	501	568	
4	0	0	0	0	501	568	
5	0	0	0	0	499	568	
6	0	0	0	0	497	568	
7	0	0	0	0	495	568	
8	0	0	0	0	495	568	
9	0	0	0	0	496	568	
10	0	0	0	0	496	568	
11	0	0	0	0	498	568	
12	0	0	0	0	499	568	
13	0	0	0	0	500	568	
14	0	0	0	0	503	568	
15	0	0	0	0	504	568	
0	0	0	0	0	505	568	
1	0	0	0	0	506	568	
2	0	0	0	0	507	568	
3	0	0	0	0	507	568	
4	0	0	0	0	506	568	
5	0	0	0	0	506	568	
6	0	0	0	0	505	568	
7	0	0	0	0	504	568	
8	0	0	0	0	503	568	
9	0	0	0	0	503	568	
10	0	0	0	0	502	568	
11	0	0	0	0	501	568	
12	0	0	0	0	500	568	
13	0	0	0	0	501	568	
14	0	0	0	0	502	568	
15	0	0	0	0	504	568	
0	0	0	0	0	505	568	
1	0	0	0	0	507	568	
2	0	0	0	0	509	568	
3	0	0	0	0	508	568	
4	0	0	0	0	508	568	
5	0	0	0	0	509	568	
6	0	0	0	0	509	568	
7	0	0	0	0	508	568	
8	0	0	0	0	509	568	
9	0	0	0	0	510	568	
10	0	0	0	0	511	568	
11	0	0	0	0	512	568	
12	0	0	0	0	515	568	
13	0	0	0	0	516	568	
14	0	0	0	0	515	568	
15	0	0	0	0	514	568	
0	0	0	0	0	515	568	
1	0	0	0	0	515	568	
2	0	0	0	0	515	568	
3	0	0	0	0	515	568	
4	0	0	0	0	514	568	
5	0	0	0	0	513	568	
6	0	0	0	0	511	568	
7	0	0	0	0	510	568	
8	0	0	0	0	509	568	
9	0	0	0	0	507	568	
10	0	0	0	0	506	568	
11	0	0	0	0	507	568	
12	0	0	0	0	508	568	
13	0	0	0	0	510	568	
14	0	0	0	0	510	568	
15	0	0	0	0	511	568	
0	0	0	0	0	513	568	
1	0	0	0	0	513	568	
2	0	0	0	0	513	568	
3	0	0	0	0	513	568	
4	0	0	0	0	512	568	
5	0	0	0	0	512	568	
6	0	0	0	0	511	568	
7	0	0	0	0	510	568	
8	0	0	0	0	510	568	
9	0	0	0	0	509	568	
10	0	0	0	0	509	568	
11	0	0	0	0	509	568	
12	0	0	0	0	508	568	
13	0	0	0	0	509	568	
14	0	0	0	0	511	568	
15	0	0	0	0	513	568	
0	0	0	0	0	516	568	
1	0	0	0	0	518	568	
2	0	0	0	0	519	568	
3	0	0	0	0	520	568	
4	0	0	0	0	520	568	
5	0	0	0	0	519	568	
6	0	0	0	0	517	568	
7	0	0	0	0	514	568	
8	0	0	0	0	513	568	
9	0	0	0	0	512	568	
10	0	0	0	0	511	568	
11	0	0	0	0	510	568	
12	0	0	0	0	508	568	
13	0	0	0	0	507	568	
14	0	0	0	0	507	568	
15	0	0	0	0	507	568	
0	0	0	0	0	506	568	
1	0	0	0	0	505	568	
2	0	0	0	0	507	568	
3	0	0	0	0	509	568	
4	0	0	0	0	510	568	
5	0	0	0	0	511	568	
6	0	0	0	0	511	568	
7	0	0	0	0	511	568	
8	0	0	0	0	512	568	
9	0	0	0	0	511	568	
10	0	0	0	0	511	568	
11	0	0	0	0	510	569	
12	0	0	0	0	509	568	
13	0	0	0	0	510	568	
14	0	0	0	0	511	569	
15	0	0	0	0	512	568	
0	0	0	0	0	513	569	
1	0	0	0	0	513	568	
2	0	0	0	0	513	568	
3	0	0	0	0	514	568	
4	0	0	0	0	513	569	
5	0	0	0	0	512	568	
6	0	0	0	0	511	568	
7	0	0	0	0	511	568	
8	0	0	0	0	509	569	
9	0	0	0	0	509	568	
10	0	0	0	0	510	569	
11	0	0	0	0	509	568	
12	0	0	0	0	508	569	
13	0	0	0	0	508	569	
14	0	0	0	0	508	568	
15	0	0	0	0	509	568	
0	0	0	0	0	510	568	
1	0	0	0	0	510	569	
2	0	0	0	0	511	568	
3	0	0	0	0	511	568	
4	0	0	0	0	511	568	
5	0	0	0	0	509	569	
6	0	0	0	0	510	568	
7	0	0	0	0	509	569	
8	0	0	0	0	508	568	
9	0	0	0	0	508	569	
10	0	0	0	0	506	568	
11	0	0	0	0	504	568	
12	0	0	0	0	504	569	
13	0	0	0	0	504	569	
14	0	0	0	0	505	568	
15	0	0	0	0	506	568	
0	0	0	0	0	506	569	
1	0	0	0	0	506	569	
2	0	0	0	0	508	569	
3	0	0	0	0	509	569	
4	0	0	0	0	509	568	
5	0	0	0	0	510	569	
6	0	0	0	0	509	569	
7	0	0	0	0	509	569	
8	0	0	0	0	508	568	
9	0	0	0	0	507	569	
10	0	0	0	0	507	569	
11	0	0	0	0	506	569	
12	0	0	0	0	504	569	
13	0	0	0	0	504	569	
14	0	0	0	0	503	569	
15	0	0	0	0	503	569	
0	0	0	0	0	502	569	
1	0	0	0	0	502	569	
2	0	0	0	0	503	569	
3	0	0	0	0	504	569	
4	0	0	0	0	504	569	
5	0	0	0	0	505	569	
6	0	0	0	0	506	569	
7	0	0	0	0	506	569	
8	0	0	0	0	507	569	
9	0	0	0	0	507	569	
10	0	0	0	0	506	569	
11	0	0	0	0	507	569	
12	0	0	0	0	508	569	
13	0	0	0	0	508	569	
14	0	0	0	0	510	569	
15	0	0	0	0	512	569	
0	0	0	0	0	514	569	
1	0	0	0	0	516	569	
2	0	0	0	0	519	569	
3	0	0	0	0	521	569	
4	0	0	0	0	523	569	
5	0	0	0	0	525	569	
6	0	0	0	0	526	569	
7	0	0	0	0	526	569	
8	0	0	0	0	526	569	
9	0	0	0	0	526	569	
10	0	0	0	0	524	569	
11	0	0	0	0	522	569	
12	0	0	0	0	521	569	
13	0	0	0	0	520	569	
14	0	0	0	0	519	569	
15	0	0	0	0	519	569	
0	0	0	0	0	520	569	
1	0	0	0	0	523	569	
2	0	0	0	0	526	569	
3	0	0	0	0	529	569	
4	0	0	0	0	531	569	
5	0	0	0	0	534	569	
6	0	0	0	0	536	569	
7	0	0	0	0	537	568	
8	0	0	0	0	536	569	
9	0	0	0	0	536	569	
10	0	0	0	0	534	569	
11	0	0	0	0	532	569	
12	0	0	0	0	531	569	
13	0	0	0	0	530	569	
14	0	0	0	0	530	569	
15	0	0	0	0	530	569	
0	0	0	0	0	531	569	
1	0	0	0	0	533	569	
2	0	0	0	0	535	569	
3	0	0	0	0	537	569	
4	0	0	0	0	540	569	
5	0	0	0	0	542	569	
6	0	0	0	0	543	569	
7	0	0	0	0	545	569	
8	0	0	0	0	544	569	
9	0	0	0	0	543	569	
10	0	0	0	0	542	569	
11	0	0	0	0	542	569	
12	0	0	0	0	541	569	
13	0	0	0	0	540	569	
14	0	0	0	0	536	569	
15	0	0	0	0	533	569	
0	0	0	0	0	530	569	
1	0	0	0	0	528	569	
2	0	0	0	0	527	569	
3	0	0	0	0	525	569	
4	0	0	0	0	524	569	
5	0	0	0	0	525	569	
6	0	0	0	0	525	569	
7	0	0	0	0	525	569	
8	0	0	0	0	525	569	
9	0	0	0	0	524	569	
10	0	0	0	0	524	569	
11	0	0	0	0	522	569	
12	0	0	0	0	518	569	
13	0	0	0	0	513	569	
14	0	0	0	0	509	569	
15	0	0	0	0	506	569	
0	0	0	0	0	503	569	
1	0	0	0	0	499	569	
2	0	0	0	0	495	569	
3	0	0	0	0	491	569	
4	0	0	0	0	488	569	
5	0	0	0	0	488	569	
6	0	0	0	0	487	569	
7	0	0	0	0	485	569	
8	0	0	0	0	485	569	
9	0	0	0	0	484	569	
10	0	0	0	0	483	569	
11	0	0	0	0	483	569	
12	0	0	0	0	481	569	
13	0	0	0	0	480	569	
14	0	0	0	0	478	569	
15	0	0	0	0	475	569	
0	0	0	0	0	473	569	
1	0	0	0	0	472	569	
2	0	0	0	0	471	569	
3	0	0	0	0	471	569	
4	0	0	0	0	472	569	
5	0	0	0	0	472	569	
6	0	0	0	0	473	569	
7	0	0	0	0	474	569	
8	0	0	0	0	476	569	
9	0	0	0	0	477	569	
10	0	0	0	0	478	569	
11	0	0	0	0	479	569	
12	0	0	0	0	479	569	
13	0	0	0	0	479	569	
14	0	0	0	0	480	569	
15	0	0	0	0	480	569	
0	0	0	0	0	480	569	
1	0	0	0	0	481	569	
2	0	0	0	0	483	569	
3	0	0	0	0	484	569	
4	0	0	0	0	485	569	
5	0	0	0	0	485	569	
6	0	0	0	0	486	569	
7	0	0	0	0	486	569	
8	0	0	0	0	486	570	
9	0	0	0	0	487	569	
10	0	0	0	0	488	569	
11	0	0	0	0	487	569	
12	0	0	0	0	487	569	
13	0	0	0	0	487	569	
14	0	0	0	0	486	569	
15	0	0	0	0	485	569	
0	0	0	0	0	483	569	
1	0	0	0	0	482	569	
2	0	0	0	0	480	569	
3	0	0	0	0	479	569	
4	0	0	0	0	477	569	
5	0	0	0	0	477	569	
6	0	0	0	0	476	569	
7	0	0	0	0	473	569	
8	0	0	0	0	471	569	
9	0	0	0	0	467	569	
10	0	0	0	0	466	570	
11	0	0	0	0	465	569	
12	0	0	0	0	466	569	
13	0	0	0	0	469	569	
14	0	0	0	0	473	569	
15	0	0	0	0	476	569	
0	0	0	0	0	481	569	
1	0	0	0	0	485	569	
2	0	0	0	0	489	569	
3	0	0	0	0	493	569	
4	0	0	0	0	499	569	
5	0	0	0	0	507	569	
6	0	0	0	0	519	569	
7	0	0	0	0	531	569	
8	0	0	0	0	547	569	
9	0	0	0	0	564	569	
10	0	0	0	0	582	569	
11	0	0	0	0	601	569	
12	0	0	0	0	620	569	
13	0	0	0	0	639	569	
14	0	0	0	0	659	569	
15	0	0	0	0	677	569	
0	0	0	0	0	695	569	
1	0	0	0	0	712	569	
2	0	0	0	0	729	569	
3	0	0	0	0	748	569	
4	0	0	0	0	763	569	
5	0	0	0	0	776	569	
6	0	0	0	0	783	569	
7	0	0	0	0	786	570	
8	0	0	0	0	786	569	
9	0	0	0	0	783	570	
10	0	0	0	0	775	570	
11	0	0	0	0	760	569	
12	0	0	0	0	736	569	
13	0	0	0	0	706	570	
14	0	0	0	0	675	569	
15	0	0	0	0	642	570	
0	0	0	0	0	609	569	
1	0	0	0	0	578	569	
2	0	0	0	0	548	569	
3	0	0	0	0	519	569	
4	0	0	0	0	488	569	
5	0	0	0	0	462	570	
6	0	0	0	0	439	569	
7	0	0	0	0	420	570	
8	0	0	0	0	407	570	
9	0	0	0	0	395	570	
10	0	0	0	0	387	569	
11	0	0	0	0	383	569	
12	0	0	0	0	379	569	
13	0	0	0	0	378	570	
14	0	0	0	0	379	570	
15	0	0	0	0	380	569	
0	0	0	0	0	382	570	
1	0	0	0	0	383	570	
2	0	0	0	0	383	570	
3	0	0	0	0	385	570	
4	0	0	0	0	387	569	
5	0	0	0	0	389	570	
6	0	0	0	0	392	570	
7	0	0	0	0	397	570	
8	0	0	0	0	402	570	
9	0	0	0	0	408	569	
10	0	0	0	0	413	570	
11	0	0	0	0	417	570	
12	0	0	0	0	422	570	
13	0	0	0	0	427	570	
14	0	0	0	0	430	570	
15	0	0	0	0	434	570	
0	0	0	0	0	438	569	
1	0	0	0	0	443	569	
2	0	0	0	0	449	570	
3	0	0	0	0	454	570	
4	0	0	0	0	457	570	
5	0	0	0	0	461	570	
6	0	0	0	0	463	570	
7	0	0	0	0	466	570	
8	0	0	0	0	470	570	
9	0	0	0	0	472	570	
10	0	0	0	0	473	570	
11	0	0	0	0	474	570	
12	0	0	0	0	476	570	
13	0	0	0	0	476	570	
14	0	0	0	0	478	570	
15	0	0	0	0	480	570	
0	0	0	0	0	481	570	
1	0	0	0	0	482	570	
2	0	0	0	0	481	570	
3	0	0	0	0	480	570	
4	0	0	0	0	480	570	
5	0	0	0	0	480	570	
6	0	0	0	0	480	570	
7	0	0	0	0	481	570	
8	0	0	0	0	482	570	
9	0	0	0	0	483	570	
10	0	0	0	0	484	570	
11	0	0	0	0	486	570	
12	0	0	0	0	487	570	
13	0	0	0	0	488	570	
14	0	0	0	0	489	570	
15	0	0	0	0	491	570	
0	0	0	0	0	492	570	
1	0	0	0	0	492	570	
2	0	0	0	0	491	570	
3	0	0	0	0	490	570	
4	0	0	0	0	490	570	
5	0	0	0	0	489	570	
6	0	0	0	0	489	570	
7	0	0	0	0	490	570	
8	0	0	0	0	490	570	
9	0	0	0	0	492	570	
10	0	0	0	0	492	570	
11	0	0	0	0	493	570	
12	0	0	0	0	494	570	
13	0	0	0	0	496	570	
14	0	0	0	0	497	570	
15	0	0	0	0	498	570	
0	0	0	0	0	499	570	
1	0	0	0	0	499	570	
2	0	0	0	0	500	570	
3	0	0	0	0	499	570	
4	0	0	0	0	499	570	
5	0	0	0	0	499	570	
6	0	0	0	0	498	570	
7	0	0	0	0	497	570	
8	0	0	0	0	496	570	
9	0	0	0	0	495	570	
10	0	0	0	0	495	570	
11	0	0	0	0	497	570	
12	0	0	0	0	499	570	
13	0	0	0	0	502	570	
14	0	0	0	0	503	570	
15	0	0	0	0	504	570	
0	0	0	0	0	505	570	
1	0	0	0	0	506	570	
2	0	0	0	0	505	570	
3	0	0	0	0	505	570	
4	0	0	0	0	503	570	
5	0	0	0	0	503	570	
6	0	0	0	0	501	570	
7	0	0	0	0	500	570	
8	0	0	0	0	499	570	
9	0	0	0	0	500	570	
10	0	0	0	0	502	570	
11	0	0	0	0	504	570	
12	0	0	0	0	507	570	
13	0	0	0	0	509	570	
14	0	0	0	0	509	570	
15	0	0	0	0	510	570	
0	0	0	0	0	511	570	
1	0	0	0	0	512	570	
2	0	0	0	0	512	570	
3	0	0	0	0	512	570	
4	0	0	0	0	510	570	
5	0	0	0	0	508	570	
6	0	0	0	0	507	570	
7	0	0	0	0	505	570	
8	0	0	0	0	505	571	
9	0	0	0	0	504	570	
10	0	0	0	0	505	570	
11	0	0	0	0	506	570	
12	0	0	0	0	506	570	
13	0	0	0	0	507	570	
14	0	0	0	0	508	570	
15	0	0	0	0	509	570	
0	0	0	0	0	510	570	
1	0	0	0	0	511	571	
2	0	0	0	0	511	570	
3	0	0	0	0	511	570	
4	0	0	0	0	511	570	
5	0	0	0	0	510	570	
6	0	0	0	0	509	570	
7	0	0	0	0	507	570	
8	0	0	0	0	505	571	
9	0	0	0	0	505	570	
10	0	0	0	0	506	570	
11	0	0	0	0	506	571	
12	0	0	0	0	507	570	
13	0	0	0	0	508	571	
14	0	0	0	0	510	570	
15	0	0	0	0	510	571	
0	0	0	0	0	511	570	
1	0	0	0	0	512	570	
2	0	0	0	0	513	570	
3	0	0	0	0	514	570	
4	0	0	0	0	514	570	
5	0	0	0	0	514	571	
6	0	0	0	0	513	570	
7	0	0	0	0	513	571	
8	0	0	0	0	512	570	
9	0	0	0	0	512	570	
10	0	0	0	0	511	570	
11	0	0	0	0	511	570	
12	0	0	0	0	512	570	
13	0	0	0	0	512	570	
14	0	0	0	0	513	570	
15	0	0	0	0	514	570	
0	0	0	0	0	516	571	
1	0	0	0	0	518	570	
2	0	0	0	0	519	571	
3	0	0	0	0	520	570	
4	0	0	0	0	520	570	
5	0	0	0	0	520	570	
6	0	0	0	0	519	570	
7	0	0	0	0	518	570	
8	0	0	0	0	516	571	
9	0	0	0	0	515	571	
10	0	0	0	0	515	570	
11	0	0	0	0	515	570	
12	0	0	0	0	515	571	
13	0	0	0	0	515	571	
14	0	0	0	0	516	571	
15	0	0	0	0	518	570	
0	0	0	0	0	519	570	
1	0	0	0	0	520	570	
2	0	0	0	0	521	571	
3	0	0	0	0	521	571	
4	0	0	0	0	520	570	
5	0	0	0	0	520	571	
6	0	0	0	0	521	570	
7	0	0	0	0	522	570	
8	0	0	0	0	523	571	
9	0	0	0	0	521	570	
10	0	0	0	0	520	571	
11	0	0	0	0	519	571	
12	0	0	0	0	519	571	
13	0	0	0	0	519	571	
14	0	0	0	0	520	570	
15	0	0	0	0	523	571	
0	0	0	0	0	525	570	
1	0	0	0	0	526	571	
2	0	0	0	0	526	571	
3	0	0	0	0	527	571	
4	0	0	0	0	527	571	
5	0	0	0	0	526	570	
6	0	0	0	0	527	570	
7	0	0	0	0	526	571	
8	0	0	0	0	527	571	
9	0	0	0	0	526	571	
10	0	0	0	0	525	571	
11	0	0	0	0	524	570	
12	0	0	0	0	523	571	
13	0	0	0	0	522	571	
14	0	0	0	0	522	571	
15	0	0	0	0	522	571	
0	0	0	0	0	523	571	
1	0	0	0	0	523	571	
2	0	0	0	0	525	571	
3	0	0	0	0	525	571	
4	0	0	0	0	526	571	
5	0	0	0	0	526	571	
6	0	0	0	0	526	571	
7	0	0	0	0	526	571	
8	0	0	0	0	526	571	
9	0	0	0	0	525	571	
10	0	0	0	0	525	571	
11	0	0	0	0	524	571	
12	0	0	0	0	522	571	
13	0	0	0	0	521	571	
14	0	0	0	0	521	571	
15	0	0	0	0	523	571	
0	0	0	0	0	524	571	
1	0	0	0	0	526	571	
2	0	0	0	0	527	571	
3	0	0	0	0	527	570	
4	0	0	0	0	528	571	
5	0	0	0	0	528	571	
6	0	0	0	0	528	571	
7	0	0	0	0	527	571	
8	0	0	0	0	527	571	
9	0	0	0	0	525	571	
10	0	0	0	0	523	571	
11	0	0	0	0	520	570	
12	0	0	0	0	519	571	
13	0	0	0	0	518	571	
14	0	0	0	0	516	571	
15	0	0	0	0	515	571	
0	0	0	0	0	516	571	
1	0	0	0	0	518	571	
2	0	0	0	0	518	571	
3	0	0	0	0	518	571	
4	0	0	0	0	519	571	
5	0	0	0	0	519	571	
6	0	0	0	0	519	571	
7	0	0	0	0	519	571	
8	0	0	0	0	519	571	
9	0	0	0	0	519	571	
10	0	0	0	0	517	571	
11	0	0	0	0	516	571	
12	0	0	0	0	515	570	
13	0	0	0	0	513	571	
14	0	0	0	0	513	571	
15	0	0	0	0	513	571	
0	0	0	0	0	512	571	
1	0	0	0	0	513	571	
2	0	0	0	0	514	571	
3	0	0	0	0	515	571	
4	0	0	0	0	516	571	
5	0	0	0	0	517	571	
6	0	0	0	0	517	571	
7	0	0	0	0	517	571	
8	0	0	0	0	518	571	
9	0	0	0	0	515	571	
10	0	0	0	0	513	571	
11	0	0	0	0	511	571	
12	0	0	0	0	510	571	
13	0	0	0	0	508	571	
14	0	0	0	0	505	571	
15	0	0	0	0	505	571	
0	0	0	0	0	505	571	
1	0	0	0	0	505	571	
2	0	0	0	0	505	571	
3	0	0	0	0	506	571	
4	0	0	0	0	507	571	
5	0	0	0	0	508	571	
6	0	0	0	0	508	571	
7	0	0	0	0	508	571	
8	0	0	0	0	507	571	
9	0	0	0	0	506	571	
10	0	0	0	0	504	571	
11	0	0	0	0	503	571	
12	0	0	0	0	500	571	
13	0	0	0	0	498	571	
14	0	0	0	0	498	571	
15	0	0	0	0	497	571	
0	0	0	0	0	496	571	
1	0	0	0	0	494	571	
2	0	0	0	0	493	571	
3	0	0	0	0	492	571	
4	0	0	0	0	492	571	
5	0	0	0	0	493	571	
6	0	0	0	0	495	571	
7	0	0	0	0	496	571	
8	0	0	0	0	497	571	
9	0	0	0	0	497	571	
10	0	0	0	0	497	571	
11	0	0	0	0	496	571	
12	0	0	0	0	496	571	
13	0	0	0	0	495	571	
14	0	0	0	0	494	571	
15	0	0	0	0	494	571	
0	0	0	0	0	494	571	
1	0	0	0	0	492	571	
2	0	0	0	0	491	571	
3	0	0	0	0	492	571	
4	0	0	0	0	492	571	
5	0	0	0	0	492	571	
6	0	0	0	0	493	571	
7	0	0	0	0	494	571	
8	0	0	0	0	495	571	
9	0	0	0	0	495	571	
10	0	0	0	0	496	571	
11	0	0	0	0	496	571	
12	0	0	0	0	496	571	
13	0	0	0	0	496	571	
14	0	0	0	0	497	571	
15	0	0	0	0	497	571	
0	0	0	0	0	497	571	
1	0	0	0	0	496	571	
2	0	0	0	0	496	571	
3	0	0	0	0	497	571	
4	0	0	0	0	497	571	
5	0	0	0	0	499	571	
6	0	0	0	0	499	571	
7	0	0	0	0	499	571	
8	0	0	0	0	499	571	
9	0	0	0	0	499	571	
10	0	0	0	0	499	571	
11	0	0	0	0	499	571	
12	0	0	0	0	498	571	
13	0	0	0	0	497	571	
14	0	0	0	0	497	571	
15	0	0	0	0	497	571	
0	0	0	0	0	497	571	
1	0	0	0	0	496	571	
2	0	0	0	0	496	571	
3	0	0	0	0	495	571	
4	0	0	0	0	496	571	
5	0	0	0	0	497	571	
6	0	0	0	0	499	571	
7	0	0	0	0	500	571	
8	0	0	0	0	502	571	
9	0	0	0	0	503	571	
10	0	0	0	0	503	571	
11	0	0	0	0	503	571	
12	0	0	0	0	503	571	
13	0	0	0	0	502	571	
14	0	0	0	0	500	571	
15	0	0	0	0	499	571	
0	0	0	0	0	498	571	
1	0	0	0	0	497	571	
2	0	0	0	0	497	571	
3	0	0	0	0	499	571	
4	0	0	0	0	502	571	
5	0	0	0	0	504	571	
6	0	0	0	0	505	571	
7	0	0	0	0	505	571	
8	0	0	0	0	505	571	
9	0	0	0	0	505	571	
10	0	0	0	0	505	571	
11	0	0	0	0	504	571	
12	0	0	0	0	502	571	
13	0	0	0	0	500	571	
14	0	0	0	0	499	571	
15	0	0	0	0	498	571	
0	0	0	0	0	499	571	
1	0	0	0	0	500	571	
2	0	0	0	0	502	571	
3	0	0	0	0	504	571	
4	0	0	0	0	507	571	
5	0	0	0	0	510	571	
6	0	0	0	0	513	571	
7	0	0	0	0	518	571	
8	0	0	0	0	523	571	
9	0	0	0	0	527	571	
10	0	0	0	0	530	571	
11	0	0	0	0	531	571	
12	0	0	0	0	530	571	
13	0	0	0	0	529	571	
14	0	0	0	0	527	571	
15	0	0	0	0	523	571	
0	0	0	0	0	519	571	
1	0	0	0	0	515	571	
2	0	0	0	0	510	571	
3	0	0	0	0	505	571	
4	0	0	0	0	501	571	
5	0	0	0	0	498	571	
6	0	0	0	0	495	571	
7	0	0	0	0	493	571	
8	0	0	0	0	493	571	
9	0	0	0	0	494	571	
10	0	0	0	0	496	571	
11	0	0	0	0	498	571	
12	0	0	0	0	501	571	
13	0	0	0	0	503	571	
14	0	0	0	0	505	571	
15	0	0	0	0	508	571	
0	0	0	0	0	510	571	
1	0	0	0	0	510	571	
2	0	0	0	0	510	572	
3	0	0	0	0	507	571	
4	0	0	0	0	504	571	
5	0	0	0	0	503	571	
6	0	0	0	0	499	571	
7	0	0	0	0	496	571	
8	0	0	0	0	494	571	
9	0	0	0	0	492	571	
10	0	0	0	0	491	571	
11	0	0	0	0	492	571	
12	0	0	0	0	492	571	
13	0	0	0	0	492	571	
14	0	0	0	0	492	571	
15	0	0	0	0	492	571	
0	0	0	0	0	492	571	
1	0	0	0	0	491	571	
2	0	0	0	0	490	571	
3	0	0	0	0	488	571	
4	0	0	0	0	487	571	
5	0	0	0	0	486	571	
6	0	0	0	0	484	571	
7	0	0	0	0	484	571	
8	0	0	0	0	485	572	
9	0	0	0	0	486	571	
10	0	0	0	0	486	571	
11	0	0	0	0	486	571	
12	0	0	0	0	487	571	
13	0	0	0	0	488	571	
14	0	0	0	0	488	571	
15	0	0	0	0	489	571	
0	0	0	0	0	489	571	
1	0	0	0	0	489	572	
2	0	0	0	0	488	571	
3	0	0	0	0	488	571	
4	0	0	0	0	487	571	
5	0	0	0	0	488	571	
6	0	0	0	0	487	571	
7	0	0	0	0	488	571	
8	0	0	0	0	489	571	
9	0	0	0	0	489	571	
10	0	0	0	0	489	572	
11	0	0	0	0	489	571	
12	0	0	0	0	489	571	
13	0	0	0	0	489	571	
14	0	0	0	0	489	571	
15	0	0	0	0	490	571	
0	0	0	0	0	491	571	
1	0	0	0	0	491	572	
2	0	0	0	0	490	571	
3	0	0	0	0	490	572	
4	0	0	0	0	489	571	
5	0	0	0	0	488	571	
6	0	0	0	0	487	572	
7	0	0	0	0	487	571	
8	0	0	0	0	487	572	
9	0	0	0	0	488	571	
10	0	0	0	0	491	571	
11	0	0	0	0	493	572	
12	0	0	0	0	493	571	
13	0	0	0	0	494	572	
14	0	0	0	0	494	571	
15	0	0	0	0	494	571	
0	0	0	0	0	493	571	
1	0	0	0	0	493	571	
2	0	0	0	0	493	572	
3	0	0	0	0	493	571	
4	0	0	0	0	493	571	
5	0	0	0	0	494	571	
6	0	0	0	0	493	571	
7	0	0	0	0	492	571	
8	0	0	0	0	492	572	
9	0	0	0	0	493	572	
10	0	0	0	0	495	572	
11	0	0	0	0	496	571	
12	0	0	0	0	497	571	
13	0	0	0	0	498	572	
14	0	0	0	0	498	572	
15	0	0	0	0	498	572	
0	0	0	0	0	498	572	
1	0	0	0	0	498	571	
2	0	0	0	0	496	572	
3	0	0	0	0	494	572	
4	0	0	0	0	492	572	
5	0	0	0	0	490	572	
6	0	0	0	0	488	571	
7	0	0	0	0	487	572	
8	0	0	0	0	486	572	
9	0	0	0	0	487	572	
10	0	0	0	0	489	572	
11	0	0	0	0	491	571	
12	0	0	0	0	494	572	
13	0	0	0	0	497	572	
14	0	0	0	0	500	572	
15	0	0	0	0	503	572	
0	0	0	0	0	503	572	
1	0	0	0	0	502	571	
2	0	0	0	0	501	571	
3	0	0	0	0	500	572	
4	0	0	0	0	499	572	
5	0	0	0	0	499	572	
6	0	0	0	0	497	572	
7	0	0	0	0	494	571	
8	0	0	0	0	492	572	
9	0	0	0	0	490	572	
10	0	0	0	0	489	572	
11	0	0	0	0	488	572	
12	0	0	0	0	489	572	
13	0	0	0	0	490	572	
14	0	0	0	0	491	572	
15	0	0	0	0	492	572	
0	0	0	0	0	495	572	
1	0	0	0	0	497	571	
2	0	0	0	0	500	572	
3	0	0	0	0	500	572	
4	0	0	0	0	501	572	
5	0	0	0	0	500	572	
6	0	0	0	0	500	572	
7	0	0	0	0	500	572	
8	0	0	0	0	499	572	
9	0	0	0	0	499	572	
10	0	0	0	0	499	572	
11	0	0	0	0	500	572	
12	0	0	0	0	503	572	
13	0	0	0	0	507	572	
14	0	0	0	0	510	572	
15	0	0	0	0	514	572	
0	0	0	0	0	517	572	
1	0	0	0	0	519	572	
2	0	0	0	0	521	572	
3	0	0	0	0	523	572	
4	0	0	0	0	524	571	
5	0	0	0	0	526	572	
6	0	0	0	0	525	572	
7	0	0	0	0	524	572	
8	0	0	0	0	524	572	
9	0	0	0	0	524	572	
10	0	0	0	0	524	572	
11	0	0	0	0	524	572	
12	0	0	0	0	524	572	
13	0	0	0	0	525	572	
14	0	0	0	0	527	572	
15	0	0	0	0	531	572	
0	0	0	0	0	532	572	
1	0	0	0	0	535	572	
2	0	0	0	0	537	572	
3	0	0	0	0	540	572	
4	0	0	0	0	543	572	
5	0	0	0	0	545	572	
6	0	0	0	0	547	572	
7	0	0	0	0	550	572	
8	0	0	0	0	551	572	
9	0	0	0	0	549	572	
10	0	0	0	0	547	572	
11	0	0	0	0	543	572	
12	0	0	0	0	540	572	
13	0	0	0	0	538	572	
14	0	0	0	0	536	572	
15	0	0	0	0	536	572	
0	0	0	0	0	537	572	
1	0	0	0	0	539	572	
2	0	0	0	0	539	572	
3	0	0	0	0	541	572	
4	0	0	0	0	542	572	
5	0	0	0	0	541	572	
6	0	0	0	0	540	572	
7	0	0	0	0	536	572	
8	0	0	0	0	531	572	
9	0	0	0	0	524	572	
10	0	0	0	0	519	572	
11	0	0	0	0	515	572	
12	0	0	0	0	512	572	
13	0	0	0	0	511	572	
14	0	0	0	0	508	572	
15	0	0	0	0	506	572	
0	0	0	0	0	505	572	
1	0	0	0	0	504	572	
2	0	0	0	0	503	572	
3	0	0	0	0	501	572	
4	0	0	0	0	498	572	
5	0	0	0	0	494	572	
6	0	0	0	0	491	572	
7	0	0	0	0	488	572	
8	0	0	0	0	485	572	
9	0	0	0	0	481	572	
10	0	0	0	0	476	572	
11	0	0	0	0	473	572	
12	0	0	0	0	469	572	
13	0	0	0	0	467	572	
14	0	0	0	0	468	572	
15	0	0	0	0	468	572	
0	0	0	0	0	469	572	
1	0	0	0	0	468	572	
2	0	0	0	0	467	572	
3	0	0	0	0	466	572	
4	0	0	0	0	466	572	
5	0	0	0	0	466	572	
6	0	0	0	0	465	572	
7	0	0	0	0	467	572	
8	0	0	0	0	467	572	
9	0	0	0	0	467	572	
10	0	0	0	0	466	572	
11	0	0	0	0	464	572	
12	0	0	0	0	463	572	
13	0	0	0	0	463	572	
14	0	0	0	0	464	572	
15	0	0	0	0	465	572	
0	0	0	0	0	468	572	
1	0	0	0	0	472	572	
2	0	0	0	0	476	572	
3	0	0	0	0	480	572	
4	0	0	0	0	484	572	
5	0	0	0	0	487	572	
6	0	0	0	0	491	572	
7	0	0	0	0	493	572	
8	0	0	0	0	496	572	
9	0	0	0	0	498	572	
10	0	0	0	0	498	572	
11	0	0	0	0	497	572	
12	0	0	0	0	497	572	
13	0	0	0	0	498	572	
14	0	0	0	0	499	572	
15	0	0	0	0	500	572	
0	0	0	0	0	501	572	
1	0	0	0	0	504	572	
2	0	0	0	0	507	572	
3	0	0	0	0	510	572	
4	0	0	0	0	512	572	
5	0	0	0	0	515	572	
6	0	0	0	0	517	572	
7	0	0	0	0	519	572	
8	0	0	0	0	523	572	
9	0	0	0	0	527	572	
10	0	0	0	0	529	572	
11	0	0	0	0	531	572	
12	0	0	0	0	533	572	
13	0	0	0	0	535	572	
14	0	0	0	0	535	572	
15	0	0	0	0	531	572	
0	0	0	0	0	525	572	
1	0	0	0	0	517	572	
2	0	0	0	0	509	572	
3	0	0	0	0	503	572	
4	0	0	0	0	495	572	
5	0	0	0	0	489	572	
6	0	0	0	0	485	572	
7	0	0	0	0	481	572	
8	0	0	0	0	478	572	
9	0	0	0	0	476	572	
10	0	0	0	0	475	572	
11	0	0	0	0	474	572	
12	0	0	0	0	475	572	
13	0	0	0	0	476	572	
14	0	0	0	0	479	572	
15	0	0	0	0	487	572	
0	0	0	0	0	496	572	
1	0	0	0	0	505	572	
2	0	0	0	0	516	572	
3	0	0	0	0	530	572	
4	0	0	0	0	546	572	
5	0	0	0	0	562	572	
6	0	0	0	0	578	572	
7	0	0	0	0	595	572	
8	0	0	0	0	615	572	
9	0	0	0	0	635	572	
10	0	0	0	0	653	572	
11	0	0	0	0	671	572	
12	0	0	0	0	693	572	
13	0	0	0	0	711	572	
14	0	0	0	0	725	572	
15	0	0	0	0	733	572	
0	0	0	0	0	739	572	
1	0	0	0	0	744	572	
2	0	0	0	0	744	572	
3	0	0	0	0	741	572	
4	0	0	0	0	727	572	
5	0	0	0	0	703	572	
6	0	0	0	0	673	572	
7	0	0	0	0	641	572	
8	0	0	0	0	609	572	
9	0	0	0	0	577	572	
10	0	0	0	0	546	572	
11	0	0	0	0	515	572	
12	0	0	0	0	484	572	
13	0	0	0	0	456	572	
14	0	0	0	0	430	572	
15	0	0	0	0	408	572	
0	0	0	0	0	390	572	
1	0	0	0	0	376	572	
2	0	0	0	0	367	573	
3	0	0	0	0	361	572	
4	0	0	0	0	360	572	
5	0	0	0	0	361	572	
6	0	0	0	0	364	572	
7	0	0	0	0	367	572	
8	0	0	0	0	371	572	
9	0	0	0	0	374	572	
10	0	0	0	0	376	572	
11	0	0	0	0	377	572	
12	0	0	0	0	379	572	
13	0	0	0	0	380	572	
14	0	0	0	0	382	572	
15	0	0	0	0	386	572	
0	0	0	0	0	391	572	
1	0	0	0	0	397	572	
2	0	0	0	0	403	573	
3	0	0	0	0	410	572	
4	0	0	0	0	416	572	
5	0	0	0	0	424	572	
6	0	0	0	0	432	572	
7	0	0	0	0	440	572	
8	0	0	0	0	448	572	
9	0	0	0	0	455	572	
10	0	0	0	0	461	572	
11	0	0	0	0	467	572	
12	0	0	0	0	472	572	
13	0	0	0	0	475	572	
14	0	0	0	0	478	572	
15	0	0	0	0	480	572	
0	0	0	0	0	482	573	
1	0	0	0	0	481	572	
2	0	0	0	0	479	572	
3	0	0	0	0	477	572	
4	0	0	0	0	473	572	
5	0	0	0	0	470	572	
6	0	0	0	0	468	572	
7	0	0	0	0	467	572	
8	0	0	0	0	470	572	
9	0	0	0	0	475	573	
10	0	0	0	0	478	572	
11	0	0	0	0	482	572	
12	0	0	0	0	486	572	
13	0	0	0	0	491	572	
14	0	0	0	0	493	572	
15	0	0	0	0	496	572	
0	0	0	0	0	501	573	
1	0	0	0	0	505	572	
2	0	0	0	0	505	572	
3	0	0	0	0	506	572	
4	0	0	0	0	506	572	
5	0	0	0	0	504	572	
6	0	0	0	0	504	572	
7	0	0	0	0	501	573	
8	0	0	0	0	497	572	
9	0	0	0	0	493	573	
10	0	0	0	0	489	573	
11	0	0	0	0	486	572	
12	0	0	0	0	482	572	
13	0	0	0	0	478	573	
14	0	0	0	0	475	573	
15	0	0	0	0	472	573	
0	0	0	0	0	470	573	
1	0	0	0	0	467	572	
2	0	0	0	0	463	573	
3	0	0	0	0	459	572	
4	0	0	0	0	457	573	
5	0	0	0	0	457	573	
6	0	0	0	0	460	572	
7	0	0	0	0	463	573	
8	0	0	0	0	463	572	
9	0	0	0	0	464	573	
10	0	0	0	0	464	572	
11	0	0	0	0	466	573	
12	0	0	0	0	468	572	
13	0	0	0	0	472	573	
14	0	0	0	0	475	573	
15	0	0	0	0	479	573	
0	0	0	0	0	483	572	
1	0	0	0	0	484	573	
2	0	0	0	0	486	573	
3	0	0	0	0	485	573	
4	0	0	0	0	486	573	
5	0	0	0	0	485	573	
6	0	0	0	0	483	573	
7	0	0	0	0	483	573	
8	0	0	0	0	483	573	
9	0	0	0	0	484	573	
10	0	0	0	0	487	573	
11	0	0	0	0	488	573	
12	0	0	0	0	489	573	
13	0	0	0	0	489	573	
14	0	0	0	0	489	573	
15	0	0	0	0	489	573	
0	0	0	0	0	489	573	
1	0	0	0	0	489	573	
2	0	0	0	0	488	573	
3	0	0	0	0	488	573	
4	0	0	0	0	489	573	
5	0	0	0	0	491	573	
6	0	0	0	0	492	573	
7	0	0	0	0	494	573	
8	0	0	0	0	498	573	
9	0	0	0	0	500	573	
10	0	0	0	0	504	573	
11	0	0	0	0	505	572	
12	0	0	0	0	508	573	
13	0	0	0	0	509	573	
14	0	0	0	0	510	573	
15	0	0	0	0	510	573	
0	0	0	0	0	509	573	
1	0	0	0	0	508	573	
2	0	0	0	0	508	573	
3	0	0	0	0	508	573	
4	0	0	0	0	509	573	
5	0	0	0	0	508	573	
6	0	0	0	0	508	573	
7	0	0	0	0	508	573	
8	0	0	0	0	511	573	
9	0	0	0	0	514	573	
10	0	0	0	0	517	573	
11	0	0	0	0	520	573	
12	0	0	0	0	522	573	
13	0	0	0	0	521	573	
14	0	0	0	0	521	573	
15	0	0	0	0	521	573	
0	0	0	0	0	522	573	
1	0	0	0	0	519	573	
2	0	0	0	0	518	573	
3	0	0	0	0	519	573	
4	0	0	0	0	520	573	
5	0	0	0	0	520	573	
6	0	0	0	0	520	573	
7	0	0	0	0	519	573	
8	0	0	0	0	517	573	
9	0	0	0	0	515	573	
10	0	0	0	0	514	573	
11	0	0	0	0	512	573	
12	0	0	0	0	513	573	
13	0	0	0	0	516	573	
14	0	0	0	0	516	573	
15	0	0	0	0	519	573	
0	0	0	0	0	525	573	
1	0	0	0	0	530	573	
2	0	0	0	0	531	573	
3	0	0	0	0	532	573	
4	0	0	0	0	535	573	
5	0	0	0	0	537	573	
6	0	0	0	0	536	573	
7	0	0	0	0	532	573	
8	0	0	0	0	530	573	
9	0	0	0	0	525	573	
10	0	0	0	0	519	573	
11	0	0	0	0	512	573	
12	0	0	0	0	508	573	
13	0	0	0	0	504	573	
14	0	0	0	0	501	573	
15	0	0	0	0	498	573	
0	0	0	0	0	499	573	
1	0	0	0	0	497	573	
2	0	0	0	0	496	573	
3	0	0	0	0	496	573	
4	0	0	0	0	498	573	
5	0	0	0	0	498	573	
6	0	0	0	0	497	573	
7	0	0	0	0	495	573	
8	0	0	0	0	495	573	
9	0	0	0	0	494	573	
10	0	0	0	0	495	573	
11	0	0	0	0	496	574	
12	0	0	0	0	499	573	
13	0	0	0	0	504	573	
14	0	0	0	0	509	573	
15	0	0	0	0	513	573	
0	0	0	0	0	518	574	
1	0	0	0	0	520	573	
2	0	0	0	0	519	573	
3	0	0	0	0	519	573	
4	0	0	0	0	518	573	
5	0	0	0	0	515	574	
6	0	0	0	0	512	574	
7	0	0	0	0	510	573	
8	0	0	0	0	508	573	
9	0	0	0	0	507	574	
10	0	0	0	0	508	574	
11	0	0	0	0	510	574	
12	0	0	0	0	513	573	
13	0	0	0	0	515	573	
14	0	0	0	0	519	573	
15	0	0	0	0	521	574	
0	0	0	0	0	523	574	
1	0	0	0	0	525	573	
2	0	0	0	0	528	573	
3	0	0	0	0	530	573	
4	0	0	0	0	530	573	
5	0	0	0	0	527	573	
6	0	0	0	0	524	574	
7	0	0	0	0	523	574	
8	0	0	0	0	522	574	
9	0	0	0	0	523	574	
10	0	0	0	0	527	573	
11	0	0	0	0	531	574	
12	0	0	0	0	536	573	
13	0	0	0	0	537	574	
14	0	0	0	0	536	574	
15	0	0	0	0	532	574	
0	0	0	0	0	528	574	
1	0	0	0	0	525	573	
2	0	0	0	0	523	574	
3	0	0	0	0	521	573	
4	0	0	0	0	520	573	
5	0	0	0	0	518	574	
6	0	0	0	0	516	573	
7	0	0	0	0	514	574	
8	0	0	0	0	512	574	
9	0	0	0	0	511	573	
10	0	0	0	0	508	574	
11	0	0	0	0	507	574	
12	0	0	0	0	504	574	
13	0	0	0	0	503	574	
14	0	0	0	0	502	574	
15	0	0	0	0	501	574	
0	0	0	0	0	501	574	
1	0	0	0	0	500	574	
2	0	0	0	0	499	574	
3	0	0	0	0	500	574	
4	0	0	0	0	502	574	
5	0	0	0	0	502	574	
6	0	0	0	0	501	574	
7	0	0	0	0	500	574	
8	0	0	0	0	502	574	
9	0	0	0	0	502	574	
10	0	0	0	0	503	574	
11	0	0	0	0	502	574	
12	0	0	0	0	501	574	
13	0	0	0	0	500	574	
14	0	0	0	0	499	574	
15	0	0	0	0	498	574	
0	0	0	0	0	497	574	
1	0	0	0	0	498	574	
2	0	0	0	0	499	574	
3	0	0	0	0	499	574	
4	0	0	0	0	499	574	
5	0	0	0	0	499	574	
6	0	0	0	0	499	574	
7	0	0	0	0	497	574	
8	0	0	0	0	496	574	
9	0	0	0	0	495	574	
10	0	0	0	0	497	574	
11	0	0	0	0	499	574	
12	0	0	0	0	499	574	
13	0	0	0	0	500	574	
14	0	0	0	0	501	574	
15	0	0	0	0	503	574	
0	0	0	0	0	505	574	
1	0	0	0	0	508	574	
2	0	0	0	0	512	574	
3	0	0	0	0	515	574	
4	0	0	0	0	518	574	
5	0	0	0	0	519	574	
6	0	0	0	0	521	574	
7	0	0	0	0	523	574	
8	0	0	0	0	524	574	
9	0	0	0	0	524	574	
10	0	0	0	0	523	574	
11	0	0	0	0	521	574	
12	0	0	0	0	518	574	
13	0	0	0	0	513	574	
14	0	0	0	0	509	574	
15	0	0	0	0	505	574	
0	0	0	0	0	500	574	
1	0	0	0	0	495	574	
2	0	0	0	0	489	574	
3	0	0	0	0	482	574	
4	0	0	0	0	476	574	
5	0	0	0	0	470	574	
6	0	0	0	0	465	574	
7	0	0	0	0	461	574	
8	0	0	0	0	458	574	
9	0	0	0	0	455	574	
10	0	0	0	0	451	574	
11	0	0	0	0	448	574	
12	0	0	0	0	447	574	
13	0	0	0	0	446	574	
14	0	0	0	0	444	574	
15	0	0	0	0	444	574	
0	0	0	0	0	446	574	
1	0	0	0	0	446	574	
2	0	0	0	0	448	574	
3	0	0	0	0	451	574	
4	0	0	0	0	453	574	
5	0	0	0	0	455	574	
6	0	0	0	0	455	574	
7	0	0	0	0	456	574	
8	0	0	0	0	455	574	
9	0	0	0	0	455	574	
10	0	0	0	0	455	574	
11	0	0	0	0	455	574	
12	0	0	0	0	455	574	
13	0	0	0	0	456	574	
14	0	0	0	0	456	574	
15	0	0	0	0	457	574	
0	0	0	0	0	460	574	
1	0	0	0	0	462	574	
2	0	0	0	0	464	574	
3	0	0	0	0	465	574	
4	0	0	0	0	467	574	
5	0	0	0	0	468	574	
6	0	0	0	0	467	574	
7	0	0	0	0	465	574	
8	0	0	0	0	464	574	
9	0	0	0	0	463	574	
10	0	0	0	0	460	574	
11	0	0	0	0	459	574	
12	0	0	0	0	457	574	
13	0	0	0	0	457	574	
14	0	0	0	0	457	574	
15	0	0	0	0	460	574	
0	0	0	0	0	465	574	
1	0	0	0	0	468	574	
2	0	0	0	0	471	574	
3	0	0	0	0	472	574	
4	0	0	0	0	473	574	
5	0	0	0	0	472	574	
6	0	0	0	0	469	574	
7	0	0	0	0	465	574	
8	0	0	0	0	461	574	
9	0	0	0	0	459	574	
10	0	0	0	0	457	574	
11	0	0	0	0	457	574	
12	0	0	0	0	458	574	
13	0	0	0	0	460	574	
14	0	0	0	0	460	574	
15	0	0	0	0	461	574	
0	0	0	0	0	462	574	
1	0	0	0	0	464	574	
2	0	0	0	0	468	574	
3	0	0	0	0	472	574	
4	0	0	0	0	475	574	
5	0	0	0	0	477	574	
6	0	0	0	0	478	574	
7	0	0	0	0	478	574	
8	0	0	0	0	478	574	
9	0	0	0	0	476	574	
10	0	0	0	0	474	574	
11	0	0	0	0	470	574	
12	0	0	0	0	466	574	
13	0	0	0	0	461	574	
14	0	0	0	0	457	574	
15	0	0	0	0	454	574	
0	0	0	0	0	453	574	
1	0	0	0	0	453	574	
2	0	0	0	0	454	574	
3	0	0	0	0	456	574	
4	0	0	0	0	460	574	
5	0	0	0	0	464	574	
6	0	0	0	0	470	574	
7	0	0	0	0	476	574	
8	0	0	0	0	479	574	
9	0	0	0	0	481	574	
10	0	0	0	0	480	574	
11	0	0	0	0	479	574	
12	0	0	0	0	478	574	
13	0	0	0	0	476	574	
14	0	0	0	0	475	574	
15	0	0	0	0	471	574	
0	0	0	0	0	468	574	
1	0	0	0	0	463	575	
2	0	0	0	0	460	574	
3	0	0	0	0	457	574	
4	0	0	0	0	455	574	
5	0	0	0	0	454	574	
6	0	0	0	0	453	574	
7	0	0	0	0	452	574	
8	0	0	0	0	453	574	
9	0	0	0	0	455	574	
10	0	0	0	0	457	575	
11	0	0	0	0	461	574	
12	0	0	0	0	465	574	
13	0	0	0	0	470	575	
14	0	0	0	0	473	574	
15	0	0	0	0	475	574	
0	0	0	0	0	473	574	
1	0	0	0	0	471	574	
2	0	0	0	0	468	575	
3	0	0	0	0	465	574	
4	0	0	0	0	464	575	
5	0	0	0	0	464	574	
6	0	0	0	0	463	574	
7	0	0	0	0	462	575	
8	0	0	0	0	461	574	
9	0	0	0	0	461	574	
10	0	0	0	0	461	574	
11	0	0	0	0	460	574	
12	0	0	0	0	459	575	
13	0	0	0	0	459	574	
14	0	0	0	0	461	575	
15	0	0	0	0	464	575	
0	0	0	0	0	466	574	
1	0	0	0	0	467	575	
2	0	0	0	0	470	574	
3	0	0	0	0	472	574	
4	0	0	0	0	476	575	
5	0	0	0	0	479	574	
6	0	0	0	0	480	575	
7	0	0	0	0	479	575	
8	0	0	0	0	475	575	
9	0	0	0	0	470	574	
10	0	0	0	0	463	575	
11	0	0	0	0	459	575	
12	0	0	0	0	459	574	
13	0	0	0	0	460	574	
14	0	0	0	0	462	574	
15	0	0	0	0	464	575	
0	0	0	0	0	466	575	
1	0	0	0	0	465	575	
2	0	0	0	0	463	574	
3	0	0	0	0	461	574	
4	0	0	0	0	461	575	
5	0	0	0	0	460	574	
6	0	0	0	0	460	575	
7	0	0	0	0	460	575	
8	0	0	0	0	459	575	
9	0	0	0	0	456	574	
10	0	0	0	0	453	575	
11	0	0	0	0	454	575	
12	0	0	0	0	453	575	
13	0	0	0	0	454	575	
14	0	0	0	0	455	575	
15	0	0	0	0	455	575	
0	0	0	0	0	454	575	
1	0	0	0	0	454	575	
2	0	0	0	0	452	574	
3	0	0	0	0	452	575	
4	0	0	0	0	451	575	
5	0	0	0	0	453	575	
6	0	0	0	0	454	575	
7	0	0	0	0	454	575	
8	0	0	0	0	454	575	
9	0	0	0	0	454	575	
10	0	0	0	0	456	575	
11	0	0	0	0	457	574	
12	0	0	0	0	457	574	
13	0	0	0	0	458	575	
14	0	0	0	0	459	575	
15	0	0	0	0	459	575	
0	0	0	0	0	459	575	
1	0	0	0	0	458	575	
2	0	0	0	0	457	575	
3	0	0	0	0	458	575	
4	0	0	0	0	459	575	
5	0	0	0	0	460	575	
6	0	0	0	0	461	574	
7	0	0	0	0	461	575	
8	0	0	0	0	461	575	
9	0	0	0	0	461	575	
10	0	0	0	0	461	575	
11	0	0	0	0	461	575	
12	0	0	0	0	461	575	
13	0	0	0	0	462	575	
14	0	0	0	0	462	575	
15	0	0	0	0	463	575	
0	0	0	0	0	463	575	
1	0	0	0	0	464	575	
2	0	0	0	0	467	575	
3	0	0	0	0	469	575	
4	0	0	0	0	470	575	
5	0	0	0	0	470	575	
6	0	0	0	0	471	575	
7	0	0	0	0	472	575	
8	0	0	0	0	474	575	
9	0	0	0	0	477	575	
10	0	0	0	0	481	575	
11	0	0	0	0	483	575	
12	0	0	0	0	484	575	
13	0	0	0	0	485	575	
14	0	0	0	0	484	575	
15	0	0	0	0	482	574	
0	0	0	0	0	481	575	
1	0	0	0	0	480	575	
2	0	0	0	0	479	575	
3	0	0	0	0	479	575	
4	0	0	0	0	479	575	
5	0	0	0	0	479	575	
6	0	0	0	0	480	575	
7	0	0	0	0	479	575	
8	0	0	0	0	477	575	
9	0	0	0	0	476	575	
10	0	0	0	0	473	575	
11	0	0	0	0	472	575	
12	0	0	0	0	472	575	
13	0	0	0	0	471	575	
14	0	0	0	0	470	575	
15	0	0	0	0	470	575	
0	0	0	0	0	470	575	
1	0	0	0	0	471	575	
2	0	0	0	0	470	575	
3	0	0	0	0	471	575	
4	0	0	0	0	472	575	
5	0	0	0	0	473	575	
6	0	0	0	0	474	575	
7	0	0	0	0	476	575	
8	0	0	0	0	478	575	
9	0	0	0	0	481	575	
10	0	0	0	0	482	575	
11	0	0	0	0	484	575	
12	0	0	0	0	487	575	
13	0	0	0	0	488	575	
14	0	0	0	0	489	575	
15	0	0	0	0	489	575	
0	0	0	0	0	489	575	
1	0	0	0	0	488	575	
2	0	0	0	0	487	575	
3	0	0	0	0	487	575	
4	0	0	0	0	489	575	
5	0	0	0	0	492	575	
6	0	0	0	0	497	575	
7	0	0	0	0	502	575	
8	0	0	0	0	506	575	
9	0	0	0	0	512	575	
10	0	0	0	0	515	575	
11	0	0	0	0	516	575	
12	0	0	0	0	516	575	
13	0	0	0	0	516	575	
14	0	0	0	0	516	575	
15	0	0	0	0	514	575	
0	0	0	0	0	512	575	
1	0	0	0	0	510	575	
2	0	0	0	0	510	575	
3	0	0	0	0	508	575	
4	0	0	0	0	509	575	
5	0	0	0	0	512	575	
6	0	0	0	0	514	575	
7	0	0	0	0	518	575	
8	0	0	0	0	524	575	
9	0	0	0	0	527	575	
10	0	0	0	0	529	575	
11	0	0	0	0	530	575	
12	0	0	0	0	528	575	
13	0	0	0	0	527	575	
14	0	0	0	0	525	575	
15	0	0	0	0	520	575	
0	0	0	0	0	513	575	
1	0	0	0	0	507	575	
2	0	0	0	0	502	575	
3	0	0	0	0	498	575	
4	0	0	0	0	494	575	
5	0	0	0	0	492	575	
6	0	0	0	0	495	575	
7	0	0	0	0	499	575	
8	0	0	0	0	503	575	
9	0	0	0	0	506	575	
10	0	0	0	0	509	575	
11	0	0	0	0	512	575	
12	0	0	0	0	512	575	
13	0	0	0	0	514	575	
14	0	0	0	0	515	575	
15	0	0	0	0	514	575	
0	0	0	0	0	514	575	
1	0	0	0	0	513	575	
2	0	0	0	0	512	575	
3	0	0	0	0	511	575	
4	0	0	0	0	510	575	
5	0	0	0	0	510	575	
6	0	0	0	0	511	575	
7	0	0	0	0	511	575	
8	0	0	0	0	512	575	
9	0	0	0	0	512	575	
10	0	0	0	0	513	575	
11	0	0	0	0	515	575	
12	0	0	0	0	516	575	
13	0	0	0	0	519	575	
14	0	0	0	0	521	575	
15	0	0	0	0	524	575	
0	0	0	0	0	528	575	
1	0	0	0	0	532	575	
2	0	0	0	0	535	575	
3	0	0	0	0	538	575	
4	0	0	0	0	539	575	
5	0	0	0	0	540	575	
6	0	0	0	0	540	575	
7	0	0	0	0	541	575	
8	0	0	0	0	541	575	
9	0	0	0	0	542	575	
10	0	0	0	0	543	575	
11	0	0	0	0	544	575	
12	0	0	0	0	545	575	
13	0	0	0	0	545	575	
14	0	0	0	0	545	575	
15	0	0	0	0	543	575	
0	0	0	0	0	542	575	
1	0	0	0	0	539	575	
2	0	0	0	0	537	575	
3	0	0	0	0	536	575	
4	0	0	0	0	535	575	
5	0	0	0	0	534	575	
6	0	0	0	0	532	575	
7	0	0	0	0	531	575	
8	0	0	0	0	531	575	
9	0	0	0	0	531	575	
10	0	0	0	0	528	575	
11	0	0	0	0	526	575	
12	0	0	0	0	526	575	
13	0	0	0	0	524	575	
14	0	0	0	0	523	575	
15	0	0	0	0	523	575	
0	0	0	0	0	522	575	
1	0	0	0	0	521	575	
2	0	0	0	0	518	575	
3	0	0	0	0	515	575	
4	0	0	0	0	511	575	
5	0	0	0	0	506	575	
6	0	0	0	0	500	575	
7	0	0	0	0	496	575	
8	0	0	0	0	492	575	
9	0	0	0	0	489	575	
10	0	0	0	0	488	575	
11	0	0	0	0	488	575	
12	0	0	0	0	487	575	
13	0	0	0	0	487	575	
14	0	0	0	0	487	575	
15	0	0	0	0	488	575	
0	0	0	0	0	491	575	
1	0	0	0	0	493	575	
2	0	0	0	0	492	575	
3	0	0	0	0	490	575	
4	0	0	0	0	491	575	
5	0	0	0	0	490	574	
6	0	0	0	0	490	575	
7	0	0	0	0	489	575	
8	0	0	0	0	487	575	
9	0	0	0	0	488	575	
10	0	0	0	0	489	575	
11	0	0	0	0	489	575	
12	0	0	0	0	491	575	
13	0	0	0	0	492	575	
14	0	0	0	0	495	575	
15	0	0	0	0	495	575	
0	0	0	0	0	496	575	
1	0	0	0	0	497	575	
2	0	0	0	0	499	575	
3	0	0	0	0	501	575	
4	0	0	0	0	502	575	
5	0	0	0	0	502	575	
6	0	0	0	0	500	575	
7	0	0	0	0	499	575	
8	0	0	0	0	499	575	
9	0	0	0	0	497	575	
10	0	0	0	0	497	575	
11	0	0	0	0	496	575	
12	0	0	0	0	496	575	
13	0	0	0	0	495	575	
14	0	0	0	0	496	575	
15	0	0	0	0	497	575	
0	0	0	0	0	499	575	
1	0	0	0	0	499	575	
2	0	0	0	0	501	575	
3	0	0	0	0	502	575	
4	0	0	0	0	502	574	
5	0	0	0	0	501	575	
6	0	0	0	0	498	575	
7	0	0	0	0	495	575	
8	0	0	0	0	491	575	
9	0	0	0	0	488	575	
10	0	0	0	0	486	575	
11	0	0	0	0	484	574	
12	0	0	0	0	484	574	
13	0	0	0	0	486	575	
14	0	0	0	0	490	574	
15	0	0	0	0	494	575	
0	0	0	0	0	499	575	
1	0	0	0	0	504	575	
2	0	0	0	0	510	574	
3	0	0	0	0	517	575	
4	0	0	0	0	524	575	
5	0	0	0	0	533	575	
6	0	0	0	0	545	575	
7	0	0	0	0	558	575	
8	0	0	0	0	572	575	
9	0	0	0	0	588	575	
10	0	0	0	0	604	575	
11	0	0	0	0	623	575	
12	0	0	0	0	639	574	
13	0	0	0	0	656	574	
14	0	0	0	0	674	575	
15	0	0	0	0	693	575	
0	0	0	0	0	711	574	
1	0	0	0	0	729	574	
2	0	0	0	0	749	574	
3	0	0	0	0	769	575	
4	0	0	0	0	787	575	
5	0	0	0	0	797	574	
6	0	0	0	0	802	575	
7	0	0	0	0	804	574	
8	0	0	0	0	803	575	
9	0	0	0	0	798	574	
10	0	0	0	0	789	575	
11	0	0	0	0	768	574	
12	0	0	0	0	739	574	
13	0	0	0	0	707	575	
14	0	0	0	0	675	575	
15	0	0	0	0	643	574	
0	0	0	0	0	611	574	
1	0	0	0	0	580	574	
2	0	0	0	0	549	574	
3	0	0	0	0	518	574	
4	0	0	0	0	489	574	
5	0	0	0	0	464	574	
6	0	0	0	0	444	575	
7	0	0	0	0	427	574	
8	0	0	0	0	414	574	
9	0	0	0	0	402	574	
10	0	0	0	0	395	574	
11	0	0	0	0	392	574	
12	0	0	0	0	390	574	
13	0	0	0	0	390	574	
14	0	0	0	0	391	574	
15	0	0	0	0	393	574	
0	0	0	0	0	397	574	
1	0	0	0	0	400	575	
2	0	0	0	0	405	574	
3	0	0	0	0	408	575	
4	0	0	0	0	411	574	
5	0	0	0	0	414	574	
6	0	0	0	0	418	574	
7	0	0	0	0	422	574	
8	0	0	0	0	426	574	
9	0	0	0	0	431	574	
10	0	0	0	0	436	575	
11	0	0	0	0	441	574	
12	0	0	0	0	447	575	
13	0	0	0	0	451	574	
14	0	0	0	0	457	574	
15	0	0	0	0	463	574	
0	0	0	0	0	468	575	
1	0	0	0	0	472	574	
2	0	0	0	0	477	574	
3	0	0	0	0	480	574	
4	0	0	0	0	483	574	
5	0	0	0	0	486	574	
6	0	0	0	0	489	574	
7	0	0	0	0	491	574	
8	0	0	0	0	492	574	
9	0	0	0	0	493	574	
10	0	0	0	0	494	575	
11	0	0	0	0	495	574	
12	0	0	0	0	497	574	
13	0	0	0	0	499	574	
14	0	0	0	0	500	574	
15	0	0	0	0	500	575	
0	0	0	0	0	501	574	
1	0	0	0	0	500	574	
2	0	0	0	0	500	574	
3	0	0	0	0	500	574	
4	0	0	0	0	501	574	
5	0	0	0	0	501	574	
6	0	0	0	0	502	574	
7	0	0	0	0	503	574	
8	0	0	0	0	504	574	
9	0	0	0	0	504	574	
10	0	0	0	0	507	574	
11	0	0	0	0	509	574	
12	0	0	0	0	510	574	
13	0	0	0	0	510	574	
14	0	0	0	0	508	574	
15	0	0	0	0	507	574	
0	0	0	0	0	508	574	
1	0	0	0	0	507	574	
2	0	0	0	0	506	574	
3	0	0	0	0	507	574	
4	0	0	0	0	508	574	
5	0	0	0	0	511	574	
6	0	0	0	0	515	574	
7	0	0	0	0	518	574	
8	0	0	0	0	521	574	
9	0	0	0	0	524	574	
10	0	0	0	0	524	574	
11	0	0	0	0	523	574	
12	0	0	0	0	525	574	
13	0	0	0	0	527	574	
14	0	0	0	0	529	574	
15	0	0	0	0	534	574	
0	0	0	0	0	539	574	
1	0	0	0	0	542	574	
2	0	0	0	0	544	574	
3	0	0	0	0	543	574	
4	0	0	0	0	541	574	
5	0	0	0	0	537	574	
6	0	0	0	0	534	574	
7	0	0	0	0	530	574	
8	0	0	0	0	526	574	
9	0	0	0	0	526	574	
10	0	0	0	0	525	574	
11	0	0	0	0	525	574	
12	0	0	0	0	524	574	
13	0	0	0	0	521	574	
14	0	0	0	0	517	574	
15	0	0	0	0	514	574	
0	0	0	0	0	512	574	
1	0	0	0	0	511	574	
2	0	0	0	0	515	574	
3	0	0	0	0	519	574	
4	0	0	0	0	522	574	
5	0	0	0	0	526	574	
6	0	0	0	0	531	574	
7	0	0	0	0	535	574	
8	0	0	0	0	540	574	
9	0	0	0	0	545	574	
10	0	0	0	0	548	574	
11	0	0	0	0	546	574	
12	0	0	0	0	539	574	
13	0	0	0	0	532	574	
14	0	0	0	0	526	574	
15	0	0	0	0	519	574	
0	0	0	0	0	514	574	
1	0	0	0	0	511	574	
2	0	0	0	0	510	574	
3	0	0	0	0	512	574	
4	0	0	0	0	513	574	
5	0	0	0	0	513	574	
6	0	0	0	0	513	574	
7	0	0	0	0	512	574	
8	0	0	0	0	510	574	
9	0	0	0	0	507	574	
10	0	0	0	0	502	574	
11	0	0	0	0	499	574	
12	0	0	0	0	498	574	
13	0	0	0	0	498	574	
14	0	0	0	0	499	574	
15	0	0	0	0	501	574	
0	0	0	0	0	506	574	
1	0	0	0	0	513	574	
2	0	0	0	0	519	574	
3	0	0	0	0	523	574	
4	0	0	0	0	527	574	
5	0	0	0	0	528	574	
6	0	0	0	0	529	574	
7	0	0	0	0	529	574	
8	0	0	0	0	528	574	
9	0	0	0	0	528	574	
10	0	0	0	0	527	574	
11	0	0	0	0	526	574	
12	0	0	0	0	523	574	
13	0	0	0	0	520	574	
14	0	0	0	0	516	574	
15	0	0	0	0	514	574	
0	0	0	0	0	511	574	
1	0	0	0	0	508	574	
2	0	0	0	0	506	574	
3	0	0	0	0	504	574	
4	0	0	0	0	504	574	
5	0	0	0	0	504	574	
6	0	0	0	0	507	574	
7	0	0	0	0	507	574	
8	0	0	0	0	510	574	
9	0	0	0	0	512	574	
10	0	0	0	0	513	574	
11	0	0	0	0	513	574	
12	0	0	0	0	515	574	
13	0	0	0	0	517	574	
14	0	0	0	0	519	574	
15	0	0	0	0	520	574	
0	0	0	0	0	522	574	
1	0	0	0	0	522	574	
2	0	0	0	0	521	574	
3	0	0	0	0	521	574	
4	0	0	0	0	523	574	
5	0	0	0	0	525	574	
6	0	0	0	0	527	574	
7	0	0	0	0	531	574	
8	0	0	0	0	532	574	
9	0	0	0	0	531	574	
10	0	0	0	0	529	574	
11	0	0	0	0	525	574	
12	0	0	0	0	523	574	
13	0	0	0	0	521	574	
14	0	0	0	0	519	574	
15	0	0	0	0	519	573	
0	0	0	0	0	520	574	
1	0	0	0	0	518	574	
2	0	0	0	0	516	574	
3	0	0	0	0	513	574	
4	0	0	0	0	512	574	
5	0	0	0	0	511	574	
6	0	0	0	0	512	574	
7	0	0	0	0	511	574	
8	0	0	0	0	511	574	
9	0	0	0	0	512	574	
10	0	0	0	0	512	574	
11	0	0	0	0	512	574	
12	0	0	0	0	512	573	
13	0	0	0	0	513	573	
14	0	0	0	0	513	574	
15	0	0	0	0	514	574	
0	0	0	0	0	515	573	
1	0	0	0	0	517	574	
2	0	0	0	0	516	574	
3	0	0	0	0	516	574	
4	0	0	0	0	513	574	
5	0	0	0	0	509	574	
6	0	0	0	0	508	574	
7	0	0	0	0	506	573	
8	0	0	0	0	507	574	
9	0	0	0	0	507	573	
10	0	0	0	0	506	573	
11	0	0	0	0	508	573	
12	0	0	0	0	510	574	
13	0	0	0	0	508	573	
14	0	0	0	0	507	573	
15	0	0	0	0	507	574	
0	0	0	0	0	505	573	
1	0	0	0	0	503	574	
2	0	0	0	0	501	573	
3	0	0	0	0	502	573	
4	0	0	0	0	503	573	
5	0	0	0	0	503	573	
6	0	0	0	0	502	573	
7	0	0	0	0	500	573	
8	0	0	0	0	503	573	
9	0	0	0	0	503	573	
10	0	0	0	0	505	573	
11	0	0	0	0	508	573	
12	0	0	0	0	509	573	
13	0	0	0	0	510	573	
14	0	0	0	0	511	573	
15	0	0	0	0	512	573	
0	0	0	0	0	513	573	
1	0	0	0	0	511	574	
2	0	0	0	0	509	573	
3	0	0	0	0	508	573	
4	0	0	0	0	507	573	
5	0	0	0	0	506	573	
6	0	0	0	0	506	573	
7	0	0	0	0	506	573	
8	0	0	0	0	504	573	
9	0	0	0	0	504	573	
10	0	0	0	0	504	573	
11	0	0	0	0	504	573	
12	0	0	0	0	503	573	
13	0	0	0	0	501	573	
14	0	0	0	0	499	573	
15	0	0	0	0	498	573	
0	0	0	0	0	498	573	
1	0	0	0	0	499	573	
2	0	0	0	0	499	573	
3	0	0	0	0	498	573	
4	0	0	0	0	497	573	
5	0	0	0	0	497	573	
6	0	0	0	0	497	573	
7	0	0	0	0	497	573	
8	0	0	0	0	495	573	
9	0	0	0	0	492	573	
10	0	0	0	0	488	573	
11	0	0	0	0	486	573	
12	0	0	0	0	483	573	
13	0	0	0	0	483	573	
14	0	0	0	0	485	573	
15	0	0	0	0	488	573	
0	0	0	0	0	493	573	
1	0	0	0	0	496	573	
2	0	0	0	0	497	573	
3	0	0	0	0	497	573	
4	0	0	0	0	498	573	
5	0	0	0	0	498	573	
6	0	0	0	0	497	573	
7	0	0	0	0	496	573	
8	0	0	0	0	496	573	
9	0	0	0	0	496	573	
10	0	0	0	0	496	573	
11	0	0	0	0	494	573	
12	0	0	0	0	492	573	
13	0	0	0	0	490	573	
14	0	0	0	0	487	573	
15	0	0	0	0	485	573	
0	0	0	0	0	483	573	
1	0	0	0	0	480	573	
2	0	0	0	0	479	573	
3	0	0	0	0	480	573	
4	0	0	0	0	481	573	
5	0	0	0	0	481	573	
6	0	0	0	0	480	573	
7	0	0	0	0	480	573	
8	0	0	0	0	480	573	
9	0	0	0	0	481	573	
10	0	0	0	0	481	573	
11	0	0	0	0	483	573	
12	0	0	0	0	485	573	
13	0	0	0	0	485	573	
14	0	0	0	0	484	573	
15	0	0	0	0	484	573	
0	0	0	0	0	485	573	
1	0	0	0	0	486	573	
2	0	0	0	0	487	573	
3	0	0	0	0	489	573	
4	0	0	0	0	489	573	
5	0	0	0	0	490	573	
6	0	0	0	0	491	573	
7	0	0	0	0	492	573	
8	0	0	0	0	492	573	
9	0	0	0	0	493	573	
10	0	0	0	0	496	572	
11	0	0	0	0	497	573	
12	0	0	0	0	497	573	
13	0	0	0	0	496	573	
14	0	0	0	0	493	573	
15	0	0	0	0	492	573	
0	0	0	0	0	493	573	
1	0	0	0	0	494	573	
2	0	0	0	0	495	573	
3	0	0	0	0	496	573	
4	0	0	0	0	497	573	
5	0	0	0	0	499	573	
6	0	0	0	0	500	573	
7	0	0	0	0	500	573	
8	0	0	0	0	498	573	
9	0	0	0	0	498	573	
10	0	0	0	0	498	573	
11	0	0	0	0	496	573	
12	0	0	0	0	495	573	
13	0	0	0	0	492	573	
14	0	0	0	0	490	573	
15	0	0	0	0	489	573	
0	0	0	0	0	487	572	
1	0	0	0	0	484	573	
2	0	0	0	0	485	573	
3	0	0	0	0	486	572	
4	0	0	0	0	486	573	
5	0	0	0	0	485	572	
6	0	0	0	0	485	573	
7	0	0	0	0	484	573	
8	0	0	0	0	483	573	
9	0	0	0	0	483	573	
10	0	0	0	0	483	572	
11	0	0	0	0	485	572	
12	0	0	0	0	486	573	
13	0	0	0	0	488	573	
14	0	0	0	0	490	572	
15	0	0	0	0	493	572	
0	0	0	0	0	495	572	
1	0	0	0	0	496	573	
2	0	0	0	0	498	573	
3	0	0	0	0	502	573	
4	0	0	0	0	502	572	
5	0	0	0	0	504	573	
6	0	0	0	0	509	573	
7	0	0	0	0	514	572	
8	0	0	0	0	519	573	
9	0	0	0	0	524	572	
10	0	0	0	0	528	572	
11	0	0	0	0	532	573	
12	0	0	0	0	534	572	
13	0	0	0	0	536	572	
14	0	0	0	0	539	572	
15	0	0	0	0	543	573	
0	0	0	0	0	544	573	
1	0	0	0	0	542	572	
2	0	0	0	0	536	572	
3	0	0	0	0	528	572	
4	0	0	0	0	521	572	
5	0	0	0	0	514	573	
6	0	0	0	0	504	573	
7	0	0	0	0	497	572	
8	0	0	0	0	491	572	
9	0	0	0	0	486	572	
10	0	0	0	0	482	572	
11	0	0	0	0	482	572	
12	0	0	0	0	483	572	
13	0	0	0	0	482	572	
14	0	0	0	0	485	572	
15	0	0	0	0	490	572	
0	0	0	0	0	494	572	
1	0	0	0	0	496	572	
2	0	0	0	0	497	572	
3	0	0	0	0	501	572	
4	0	0	0	0	503	572	
5	0	0	0	0	504	572	
6	0	0	0	0	508	572	
7	0	0	0	0	509	572	
8	0	0	0	0	511	572	
9	0	0	0	0	515	572	
10	0	0	0	0	519	572	
11	0	0	0	0	523	572	
12	0	0	0	0	526	572	
13	0	0	0	0	531	572	
14	0	0	0	0	536	572	
15	0	0	0	0	537	572	
0	0	0	0	0	538	572	
1	0	0	0	0	539	572	
2	0	0	0	0	538	572	
3	0	0	0	0	536	572	
4	0	0	0	0	535	572	
5	0	0	0	0	530	572	
6	0	0	0	0	523	572	
7	0	0	0	0	516	572	
8	0	0	0	0	510	572	
9	0	0	0	0	504	572	
10	0	0	0	0	501	572	
11	0	0	0	0	499	572	
12	0	0	0	0	498	572	
13	0	0	0	0	499	572	
14	0	0	0	0	499	572	
15	0	0	0	0	498	572	
0	0	0	0	0	497	572	
1	0	0	0	0	501	572	
2	0	0	0	0	503	572	
3	0	0	0	0	506	572	
4	0	0	0	0	511	572	
5	0	0	0	0	516	572	
6	0	0	0	0	521	572	
7	0	0	0	0	527	572	
8	0	0	0	0	534	572	
9	0	0	0	0	538	572	
10	0	0	0	0	540	572	
11	0	0	0	0	542	572	
12	0	0	0	0	543	572	
13	0	0	0	0	543	572	
14	0	0	0	0	541	572	
15	0	0	0	0	537	572	
0	0	0	0	0	532	572	
1	0	0	0	0	530	572	
2	0	0	0	0	530	572	
3	0	0	0	0	529	572	
4	0	0	0	0	528	572	
5	0	0	0	0	526	572	
6	0	0	0	0	523	572	
7	0	0	0	0	519	572	
8	0	0	0	0	515	572	
9	0	0	0	0	511	572	
10	0	0	0	0	508	572	
11	0	0	0	0	505	572	
12	0	0	0	0	503	572	
13	0	0	0	0	502	572	
14	0	0	0	0	500	572	
15	0	0	0	0	499	572	
0	0	0	0	0	497	572	
1	0	0	0	0	496	572	
2	0	0	0	0	496	572	
3	0	0	0	0	499	572	
4	0	0	0	0	502	572	
5	0	0	0	0	504	572	
6	0	0	0	0	507	572	
7	0	0	0	0	510	572	
8	0	0	0	0	511	572	
9	0	0	0	0	513	572	
10	0	0	0	0	515	572	
11	0	0	0	0	519	572	
12	0	0	0	0	523	572	
13	0	0	0	0	524	572	
14	0	0	0	0	526	572	
15	0	0	0	0	528	572	
0	0	0	0	0	529	572	
1	0	0	0	0	530	572	
2	0	0	0	0	531	572	
3	0	0	0	0	533	572	
4	0	0	0	0	533	572	
5	0	0	0	0	531	572	
6	0	0	0	0	530	572	
7	0	0	0	0	529	572	
8	0	0	0	0	529	572	
9	0	0	0	0	528	572	
10	0	0	0	0	528	572	
11	0	0	0	0	529	572	
12	0	0	0	0	529	572	
13	0	0	0	0	529	572	
14	0	0	0	0	527	572	
15	0	0	0	0	524	572	
0	0	0	0	0	525	572	
1	0	0	0	0	524	571	
2	0	0	0	0	524	572	
3	0	0	0	0	530	572	
4	0	0	0	0	534	572	
5	0	0	0	0	535	572	
6	0	0	0	0	537	572	
7	0	0	0	0	539	572	
8	0	0	0	0	541	572	
9	0	0	0	0	543	572	
10	0	0	0	0	546	572	
11	0	0	0	0	548	572	
12	0	0	0	0	549	572	
13	0	0	0	0	551	572	
14	0	0	0	0	550	572	
15	0	0	0	0	547	572	
0	0	0	0	0	544	572	
1	0	0	0	0	541	572	
2	0	0	0	0	540	572	
3	0	0	0	0	536	572	
4	0	0	0	0	532	572	
5	0	0	0	0	527	572	
6	0	0	0	0	523	572	
7	0	0	0	0	520	572	
8	0	0	0	0	518	572	
9	0	0	0	0	517	572	
10	0	0	0	0	518	571	
11	0	0	0	0	519	572	
12	0	0	0	0	521	572	
13	0	0	0	0	526	572	
14	0	0	0	0	531	572	
15	0	0	0	0	534	572	
0	0	0	0	0	539	572	
1	0	0	0	0	543	572	
2	0	0	0	0	546	571	
3	0	0	0	0	547	571	
4	0	0	0	0	547	571	
5	0	0	0	0	546	571	
6	0	0	0	0	543	572	
7	0	0	0	0	536	572	
8	0	0	0	0	531	572	
9	0	0	0	0	527	572	
10	0	0	0	0	521	571	
11	0	0	0	0	516	571	
12	0	0	0	0	512	571	
13	0	0	0	0	508	572	
14	0	0	0	0	505	571	
15	0	0	0	0	505	571	
0	0	0	0	0	505	572	
1	0	0	0	0	505	571	
2	0	0	0	0	506	571	
3	0	0	0	0	508	571	
4	0	0	0	0	511	571	
5	0	0	0	0	513	571	
6	0	0	0	0	515	572	
7	0	0	0	0	519	572	
8	0	0	0	0	520	571	
9	0	0	0	0	524	571	
10	0	0	0	0	529	571	
11	0	0	0	0	534	571	
12	0	0	0	0	536	571	
13	0	0	0	0	536	571	
14	0	0	0	0	535	571	
15	0	0	0	0	532	571	
0	0	0	0	0	531	571	
1	0	0	0	0	530	571	
2	0	0	0	0	529	571	
3	0	0	0	0	528	571	
4	0	0	0	0	529	571	
5	0	0	0	0	532	571	
6	0	0	0	0	535	571	
7	0	0	0	0	536	571	
8	0	0	0	0	538	571	
9	0	0	0	0	538	571	
10	0	0	0	0	538	571	
11	0	0	0	0	538	571	
12	0	0	0	0	537	571	
13	0	0	0	0	537	571	
14	0	0	0	0	536	571	
15	0	0	0	0	534	571	
0	0	0	0	0	533	571	
1	0	0	0	0	531	571	
2	0	0	0	0	530	571	
3	0	0	0	0	529	571	
4	0	0	0	0	528	571	
5	0	0	0	0	529	571	
6	0	0	0	0	529	571	
7	0	0	0	0	530	571	
8	0	0	0	0	533	571	
9	0	0	0	0	537	571	
10	0	0	0	0	540	571	
11	0	0	0	0	542	571	
12	0	0	0	0	544	571	
13	0	0	0	0	545	571	
14	0	0	0	0	547	571	
15	0	0	0	0	549	571	
0	0	0	0	0	551	571	
1	0	0	0	0	551	571	
2	0	0	0	0	552	571	
3	0	0	0	0	551	571	
4	0	0	0	0	552	571	
5	0	0	0	0	553	571	
6	0	0	0	0	554	571	
7	0	0	0	0	554	571	
8	0	0	0	0	556	571	
9	0	0	0	0	560	571	
10	0	0	0	0	560	571	
11	0	0	0	0	560	571	
12	0	0	0	0	557	571	
13	0	0	0	0	555	571	
14	0	0	0	0	556	571	
15	0	0	0	0	554	571	
0	0	0	0	0	552	571	
1	0	0	0	0	550	571	
2	0	0	0	0	546	571	
3	0	0	0	0	545	571	
4	0	0	0	0	547	571	
5	0	0	0	0	548	571	
6	0	0	0	0	546	571	
7	0	0	0	0	545	571	
8	0	0	0	0	544	571	
9	0	0	0	0	547	571	
10	0	0	0	0	551	571	
11	0	0	0	0	554	571	
12	0	0	0	0	557	571	
13	0	0	0	0	558	571	
14	0	0	0	0	559	570	
15	0	0	0	0	561	571	
0	0	0	0	0	562	571	
1	0	0	0	0	561	571	
2	0	0	0	0	560	571	
3	0	0	0	0	559	571	
4	0	0	0	0	561	571	
5	0	0	0	0	561	571	
6	0	0	0	0	561	571	
7	0	0	0	0	562	571	
8	0	0	0	0	563	571	
9	0	0	0	0	564	570	
10	0	0	0	0	560	570	
11	0	0	0	0	561	571	
12	0	0	0	0	563	571	
13	0	0	0	0	568	570	
14	0	0	0	0	572	570	
15	0	0	0	0	577	571	
0	0	0	0	0	582	571	
1	0	0	0	0	584	570	
2	0	0	0	0	586	571	
3	0	0	0	0	587	570	
4	0	0	0	0	586	570	
5	0	0	0	0	584	570	
6	0	0	0	0	581	571	
7	0	0	0	0	579	570	
8	0	0	0	0	575	571	
9	0	0	0	0	572	571	
10	0	0	0	0	570	570	
11	0	0	0	0	566	570	
12	0	0	0	0	561	570	
13	0	0	0	0	557	570	
14	0	0	0	0	551	570	
15	0	0	0	0	548	570	
0	0	0	0	0	547	570	
1	0	0	0	0	548	570	
2	0	0	0	0	550	570	
3	0	0	0	0	552	570	
4	0	0	0	0	556	570	
5	0	0	0	0	558	570	
6	0	0	0	0	561	570	
7	0	0	0	0	563	570	
8	0	0	0	0	565	570	
9	0	0	0	0	566	570	
10	0	0	0	0	566	570	
11	0	0	0	0	564	570	
12	0	0	0	0	562	570	
13	0	0	0	0	557	570	
14	0	0	0	0	550	570	
15	0	0	0	0	540	570	
0	0	0	0	0	529	570	
1	0	0	0	0	519	570	
2	0	0	0	0	511	570	
3	0	0	0	0	505	570	
4	0	0	0	0	501	570	
5	0	0	0	0	499	570	
6	0	0	0	0	497	570	
7	0	0	0	0	496	570	
8	0	0	0	0	494	570	
9	0	0	0	0	494	570	
10	0	0	0	0	493	570	
11	0	0	0	0	493	570	
12	0	0	0	0	493	570	
13	0	0	0	0	493	570	
14	0	0	0	0	492	570	
15	0	0	0	0	492	570	
0	0	0	0	0	492	570	
1	0	0	0	0	491	570	
2	0	0	0	0	486	570	
3	0	0	0	0	482	570	
4	0	0	0	0	483	569	
5	0	0	0	0	483	570	
6	0	0	0	0	482	570	
7	0	0	0	0	482	570	
8	0	0	0	0	482	570	
9	0	0	0	0	480	569	
10	0	0	0	0	480	570	
11	0	0	0	0	482	570	
12	0	0	0	0	484	570	
13	0	0	0	0	487	570	
14	0	0	0	0	489	569	
15	0	0	0	0	490	570	
0	0	0	0	0	491	570	
1	0	0	0	0	492	570	
2	0	0	0	0	495	570	
3	0	0	0	0	498	569	
4	0	0	0	0	499	570	
5	0	0	0	0	500	570	
6	0	0	0	0	500	569	
7	0	0	0	0	499	569	
8	0	0	0	0	499	569	
9	0	0	0	0	499	569	
10	0	0	0	0	499	569	
11	0	0	0	0	500	569	
12	0	0	0	0	500	569	
13	0	0	0	0	501	569	
14	0	0	0	0	505	569	
15	0	0	0	0	505	570	
0	0	0	0	0	506	569	
1	0	0	0	0	505	569	
2	0	0	0	0	503	570	
3	0	0	0	0	499	569	
4	0	0	0	0	495	569	
5	0	0	0	0	491	570	
6	0	0	0	0	487	569	
7	0	0	0	0	486	570	
8	0	0	0	0	484	569	
9	0	0	0	0	482	569	
10	0	0	0	0	481	569	
11	0	0	0	0	483	569	
12	0	0	0	0	486	569	
13	0	0	0	0	487	569	
14	0	0	0	0	491	569	
15	0	0	0	0	496	569	
0	0	0	0	0	502	569	
1	0	0	0	0	508	569	
2	0	0	0	0	514	569	
3	0	0	0	0	527	569	
4	0	0	0	0	541	569	
5	0	0	0	0	558	569	
6	0	0	0	0	574	569	
7	0	0	0	0	592	569	
8	0	0	0	0	614	569	
9	0	0	0	0	636	569	
10	0	0	0	0	660	569	
11	0	0	0	0	685	569	
12	0	0	0	0	709	569	
13	0	0	0	0	732	569	
14	0	0	0	0	753	569	
15	0	0	0	0	775	569	
0	0	0	0	0	796	569	
1	0	0	0	0	816	569	
2	0	0	0	0	831	569	
3	0	0	0	0	839	569	
4	0	0	0	0	841	569	
5	0	0	0	0	840	569	
6	0	0	0	0	836	569	
7	0	0	0	0	826	569	
8	0	0	0	0	812	569	
9	0	0	0	0	789	569	
10	0	0	0	0	760	569	
11	0	0	0	0	728	569	
12	0	0	0	0	697	569	
13	0	0	0	0	665	569	
14	0	0	0	0	634	569	
15	0	0	0	0	604	569	
0	0	0	0	0	573	569	
1	0	0	0	0	542	569	
2	0	0	0	0	515	569	
3	0	0	0	0	491	569	
4	0	0	0	0	467	569	
5	0	0	0	0	445	569	
6	0	0	0	0	427	569	
7	0	0	0	0	412	569	
8	0	0	0	0	399	569	
9	0	0	0	0	391	569	
10	0	0	0	0	386	569	
11	0	0	0	0	384	569	
12	0	0	0	0	385	569	
13	0	0	0	0	390	569	
14	0	0	0	0	393	569	
15	0	0	0	0	398	569	
0	0	0	0	0	399	569	
1	0	0	0	0	400	569	
2	0	0	0	0	406	569	
3	0	0	0	0	413	569	
4	0	0	0	0	419	569	
5	0	0	0	0	427	569	
6	0	0	0	0	431	568	
7	0	0	0	0	435	569	
8	0	0	0	0	441	569	
9	0	0	0	0	448	569	
10	0	0	0	0	453	569	
11	0	0	0	0	456	569	
12	0	0	0	0	459	569	
13	0	0	0	0	462	568	
14	0	0	0	0	464	569	
15	0	0	0	0	465	569	
0	0	0	0	0	467	569	
1	0	0	0	0	468	569	
2	0	0	0	0	471	569	
3	0	0	0	0	476	569	
4	0	0	0	0	476	568	
5	0	0	0	0	476	569	
6	0	0	0	0	476	569	
7	0	0	0	0	475	569	
8	0	0	0	0	476	569	
9	0	0	0	0	477	569	
10	0	0	0	0	481	569	
11	0	0	0	0	487	569	
12	0	0	0	0	490	569	
13	0	0	0	0	492	569	
14	0	0	0	0	495	569	
15	0	0	0	0	497	569	
0	0	0	0	0	497	569	
1	0	0	0	0	498	568	
2	0	0	0	0	502	569	
3	0	0	0	0	504	569	
4	0	0	0	0	507	568	
5	0	0	0	0	510	568	
6	0	0	0	0	513	569	
7	0	0	0	0	514	569	
8	0	0	0	0	516	569	
9	0	0	0	0	516	568	
10	0	0	0	0	517	568	
11	0	0	0	0	516	568	
12	0	0	0	0	516	568	
13	0	0	0	0	517	569	
14	0	0	0	0	516	568	
15	0	0	0	0	515	568	
0	0	0	0	0	514	568	
1	0	0	0	0	513	568	
2	0	0	0	0	513	568	
3	0	0	0	0	513	568	
4	0	0	0	0	515	568	
5	0	0	0	0	516	568	
6	0	0	0	0	517	568	
7	0	0	0	0	518	568	
8	0	0	0	0	519	568	
9	0	0	0	0	521	568	
10	0	0	0	0	520	568	
11	0	0	0	0	521	568	
12	0	0	0	0	522	568	
13	0	0	0	0	524	568	
14	0	0	0	0	525	568	
15	0	0	0	0	524	568	
0	0	0	0	0	524	568	
1	0	0	0	0	521	568	
2	0	0	0	0	519	568	
3	0	0	0	0	519	568	
4	0	0	0	0	520	568	
5	0	0	0	0	523	568	
6	0	0	0	0	524	568	
7	0	0	0	0	524	568	
8	0	0	0	0	525	568	
9	0	0	0	0	524	568	
10	0	0	0	0	525	568	
11	0	0	0	0	526	568	
12	0	0	0	0	524	568	
13	0	0	0	0	523	568	
14	0	0	0	0	520	568	
15	0	0	0	0	519	568	
0	0	0	0	0	520	568	
1	0	0	0	0	522	568	
2	0	0	0	0	526	568	
3	0	0	0	0	531	568	
4	0	0	0	0	532	568	
5	0	0	0	0	532	568	
6	0	0	0	0	531	568	
7	0	0	0	0	531	568	
8	0	0	0	0	536	568	
9	0	0	0	0	539	568	
10	0	0	0	0	541	568	
11	0	0	0	0	543	568	
12	0	0	0	0	543	568	
13	0	0	0	0	542	568	
14	0	0	0	0	537	568	
15	0	0	0	0	530	568	
0	0	0	0	0	525	568	
1	0	0	0	0	523	568	
2	0	0	0	0	522	568	
3	0	0	0	0	521	568	
4	0	0	0	0	522	568	
5	0	0	0	0	522	568	
6	0	0	0	0	522	568	
7	0	0	0	0	522	568	
8	0	0	0	0	520	568	
9	0	0	0	0	518	568	
10	0	0	0	0	519	568	
11	0	0	0	0	524	568	
12	0	0	0	0	531	568	
13	0	0	0	0	541	568	
14	0	0	0	0	552	568	
15	0	0	0	0	563	568	
0	0	0	0	0	575	568	
1	0	0	0	0	588	568	
2	0	0	0	0	601	568	
3	0	0	0	0	613	568	
4	0	0	0	0	620	568	
5	0	0	0	0	624	568	
6	0	0	0	0	620	568	
7	0	0	0	0	610	568	
8	0	0	0	0	599	568	
9	0	0	0	0	588	568	
10	0	0	0	0	576	568	
11	0	0	0	0	563	568	
12	0	0	0	0	551	568	
13	0	0	0	0	544	568	
14	0	0	0	0	545	568	
15	0	0	0	0	546	568	
0	0	0	0	0	547	568	
1	0	0	0	0	550	568	
2	0	0	0	0	554	568	
3	0	0	0	0	556	568	
4	0	0	0	0	554	568	
5	0	0	0	0	547	568	
6	0	0	0	0	537	568	
7	0	0	0	0	526	568	
8	0	0	0	0	512	568	
9	0	0	0	0	500	568	
10	0	0	0	0	487	568	
11	0	0	0	0	475	568	
12	0	0	0	0	463	568	
13	0	0	0	0	451	568	
14	0	0	0	0	443	568	
15	0	0	0	0	439	568	
0	0	0	0	0	438	568	
1	0	0	0	0	439	568	
2	0	0	0	0	443	568	
3	0	0	0	0	448	568	
4	0	0	0	0	455	568	
5	0	0	0	0	463	568	
6	0	0	0	0	470	568	
7	0	0	0	0	476	568	
8	0	0	0	0	481	568	
9	0	0	0	0	488	568	
10	0	0	0	0	497	568	
11	0	0	0	0	503	568	
12	0	0	0	0	508	568	
13	0	0	0	0	512	568	
14	0	0	0	0	512	568	
15	0	0	0	0	513	568	
0	0	0	0	0	517	568	
1	0	0	0	0	520	568	
2	0	0	0	0	523	568	
3	0	0	0	0	525	568	
4	0	0	0	0	527	568	
5	0	0	0	0	527	568	
6	0	0	0	0	526	568	
7	0	0	0	0	524	568	
8	0	0	0	0	525	568	
9	0	0	0	0	525	568	
10	0	0	0	0	524	568	
11	0	0	0	0	522	568	
12	0	0	0	0	522	568	
13	0	0	0	0	523	568	
14	0	0	0	0	521	568	
15	0	0	0	0	522	568	
0	0	0	0	0	524	568	
1	0	0	0	0	525	568	
2	0	0	0	0	528	568	
3	0	0	0	0	534	568	
4	0	0	0	0	540	568	
5	0	0	0	0	543	568	
6	0	0	0	0	545	568	
7	0	0	0	0	543	568	
8	0	0	0	0	540	568	
9	0	0	0	0	535	568	
10	0	0	0	0	532	567	
11	0	0	0	0	532	568	
12	0	0	0	0	529	567	
13	0	0	0	0	528	568	
14	0	0	0	0	527	568	
15	0	0	0	0	525	568	
0	0	0	0	0	526	568	
1	0	0	0	0	527	568	
2	0	0	0	0	530	568	
3	0	0	0	0	532	568	
4	0	0	0	0	531	567	
5	0	0	0	0	533	568	
6	0	0	0	0	532	568	
7	0	0	0	0	534	568	
8	0	0	0	0	535	568	
9	0	0	0	0	536	567	
10	0	0	0	0	537	568	
11	0	0	0	0	536	567	
12	0	0	0	0	536	568	
13	0	0	0	0	536	568	
14	0	0	0	0	539	567	
15	0	0	0	0	541	568	
0	0	0	0	0	542	568	
1	0	0	0	0	545	567	
2	0	0	0	0	545	568	
3	0	0	0	0	545	567	
4	0	0	0	0	544	568	
5	0	0	0	0	542	567	
6	0	0	0	0	539	568	
7	0	0	0	0	537	567	
8	0	0	0	0	539	568	
9	0	0	0	0	540	567	
10	0	0	0	0	540	568	
11	0	0	0	0	542	568	
12	0	0	0	0	544	567	
13	0	0	0	0	544	567	
14	0	0	0	0	542	567	
15	0	0	0	0	541	567	
0	0	0	0	0	540	567	
1	0	0	0	0	540	568	
2	0	0	0	0	538	567	
3	0	0	0	0	537	567	
4	0	0	0	0	536	567	
5	0	0	0	0	536	567	
6	0	0	0	0	538	567	
7	0	0	0	0	538	568	
8	0	0	0	0	538	568	
9	0	0	0	0	536	567	
10	0	0	0	0	535	567	
11	0	0	0	0	533	568	
12	0	0	0	0	533	567	
13	0	0	0	0	534	567	
14	0	0	0	0	534	567	
15	0	0	0	0	533	567	
0	0	0	0	0	532	567	
1	0	0	0	0	531	567	
2	0	0	0	0	530	567	
3	0	0	0	0	529	567	
4	0	0	0	0	528	567	
5	0	0	0	0	527	567	
6	0	0	0	0	527	567	
7	0	0	0	0	527	567	
8	0	0	0	0	527	567	
9	0	0	0	0	528	568	
10	0	0	0	0	529	567	
11	0	0	0	0	529	567	
12	0	0	0	0	531	568	
13	0	0	0	0	532	567	
14	0	0	0	0	533	567	
15	0	0	0	0	534	567	
0	0	0	0	0	534	567	
1	0	0	0	0	533	567	
2	0	0	0	0	534	567	
3	0	0	0	0	534	567	
4	0	0	0	0	533	567	
5	0	0	0	0	531	567	
6	0	0	0	0	531	567	
7	0	0	0	0	530	567	
8	0	0	0	0	530	567	
9	0	0	0	0	529	567	
10	0	0	0	0	532	567	
11	0	0	0	0	533	567	
12	0	0	0	0	532	567	
13	0	0	0	0	532	567	
14	0	0	0	0	533	567	
15	0	0	0	0	533	567	
0	0	0	0	0	532	567	
1	0	0	0	0	532	567	
2	0	0	0	0	529	567	
3	0	0	0	0	526	567	
4	0	0	0	0	524	567	
5	0	0	0	0	520	567	
6	0	0	0	0	518	567	
7	0	0	0	0	513	567	
8	0	0	0	0	511	567	
9	0	0	0	0	510	567	
10	0	0	0	0	509	567	
11	0	0	0	0	510	567	
12	0	0	0	0	509	567	
13	0	0	0	0	508	567	
14	0	0	0	0	508	567	
15	0	0	0	0	508	567	
0	0	0	0	0	507	567	
1	0	0	0	0	507	568	
2	0	0	0	0	507	567	
3	0	0	0	0	508	567	
4	0	0	0	0	508	567	
5	0	0	0	0	508	567	
6	0	0	0	0	507	567	
7	0	0	0	0	508	567	
8	0	0	0	0	509	567	
9	0	0	0	0	511	568	
10	0	0	0	0	511	567	
11	0	0	0	0	512	567	
12	0	0	0	0	515	567	
13	0	0	0	0	515	567	
14	0	0	0	0	513	567	
15	0	0	0	0	509	567	
0	0	0	0	0	507	567	
1	0	0	0	0	507	567	
2	0	0	0	0	508	567	
3	0	0	0	0	507	567	
4	0	0	0	0	507	567	
5	0	0	0	0	506	567	
6	0	0	0	0	507	567	
7	0	0	0	0	508	567	
8	0	0	0	0	510	567	
9	0	0	0	0	512	567	
10	0	0	0	0	515	567	
11	0	0	0	0	517	567	
12	0	0	0	0	520	567	
13	0	0	0	0	522	567	
14	0	0	0	0	524	567	
15	0	0	0	0	526	567	
0	0	0	0	0	527	567	
1	0	0	0	0	528	567	
2	0	0	0	0	526	567	
3	0	0	0	0	527	567	
4	0	0	0	0	526	567	
5	0	0	0	0	524	567	
6	0	0	0	0	523	567	
7	0	0	0	0	523	567	
8	0	0	0	0	521	567	
9	0	0	0	0	520	567	
10	0	0	0	0	519	567	
11	0	0	0	0	518	567	
12	0	0	0	0	519	567	
13	0	0	0	0	519	567	
14	0	0	0	0	519	567	
15	0	0	0	0	522	567	
0	0	0	0	0	525	567	
1	0	0	0	0	527	567	
2	0	0	0	0	527	567	
3	0	0	0	0	526	567	
4	0	0	0	0	525	567	
5	0	0	0	0	525	567	
6	0	0	0	0	529	567	
7	0	0	0	0	531	567	
8	0	0	0	0	532	567	
9	0	0	0	0	532	567	
10	0	0	0	0	529	567	
11	0	0	0	0	527	567	
12	0	0	0	0	524	567	
13	0	0	0	0	519	567	
14	0	0	0	0	516	568	
15	0	0	0	0	516	567	
0	0	0	0	0	517	567	
1	0	0	0	0	519	567	
2	0	0	0	0	520	567	
3	0	0	0	0	522	567	
4	0	0	0	0	524	567	
5	0	0	0	0	529	567	
6	0	0	0	0	535	567	
7	0	0	0	0	539	567	
8	0	0	0	0	543	567	
9	0	0	0	0	546	567	
10	0	0	0	0	548	567	
11	0	0	0	0	548	567	
12	0	0	0	0	548	567	
13	0	0	0	0	546	567	
14	0	0	0	0	544	567	
15	0	0	0	0	543	568	
0	0	0	0	0	540	567	
1	0	0	0	0	536	567	
2	0	0	0	0	533	567	
3	0	0	0	0	529	567	
4	0	0	0	0	524	567	
5	0	0	0	0	521	567	
6	0	0	0	0	517	567	
7	0	0	0	0	515	568	
8	0	0	0	0	514	567	
9	0	0	0	0	513	567	
10	0	0	0	0	515	567	
11	0	0	0	0	515	567	
12	0	0	0	0	515	567	
13	0	0	0	0	515	568	
14	0	0	0	0	514	568	
15	0	0	0	0	514	567	
0	0	0	0	0	515	568	
1	0	0	0	0	516	567	
2	0	0	0	0	516	568	
3	0	0	0	0	519	567	
4	0	0	0	0	521	567	
5	0	0	0	0	522	568	
6	0	0	0	0	523	567	
7	0	0	0	0	523	567	
8	0	0	0	0	522	568	
9	0	0	0	0	519	568	
10	0	0	0	0	517	567	
11	0	0	0	0	516	568	
12	0	0	0	0	514	567	
13	0	0	0	0	512	567	
14	0	0	0	0	511	567	
15	0	0	0	0	511	568	
0	0	0	0	0	510	568	
1	0	0	0	0	508	567	
2	0	0	0	0	508	568	
3	0	0	0	0	506	567	
4	0	0	0	0	505	568	
5	0	0	0	0	504	568	
6	0	0	0	0	502	567	
7	0	0	0	0	502	568	
8	0	0	0	0	504	568	
9	0	0	0	0	505	568	
10	0	0	0	0	505	568	
11	0	0	0	0	505	567	
12	0	0	0	0	506	568	
13	0	0	0	0	505	568	
14	0	0	0	0	504	568	
15	0	0	0	0	503	568	
0	0	0	0	0	505	568	
1	0	0	0	0	505	568	
2	0	0	0	0	507	568	
3	0	0	0	0	510	568	
4	0	0	0	0	510	568	
5	0	0	0	0	509	568	
6	0	0	0	0	508	568	
7	0	0	0	0	507	568	
8	0	0	0	0	506	568	
9	0	0	0	0	504	568	
10	0	0	0	0	504	568	
11	0	0	0	0	504	568	
12	0	0	0	0	504	568	
13	0	0	0	0	504	568	
14	0	0	0	0	507	568	
15	0	0	0	0	508	568	
0	0	0	0	0	507	568	
1	0	0	0	0	507	568	
2	0	0	0	0	506	568	
3	0	0	0	0	506	568	
4	0	0	0	0	507	568	
5	0	0	0	0	507	568	
6	0	0	0	0	504	568	
7	0	0	0	0	503	568	
8	0	0	0	0	503	568	
9	0	0	0	0	505	568	
10	0	0	0	0	505	568	
11	0	0	0	0	504	568	
12	0	0	0	0	504	568	
13	0	0	0	0	502	568	
14	0	0	0	0	503	568	
15	0	0	0	0	503	568	
0	0	0	0	0	504	568	
1	0	0	0	0	508	568	
2	0	0	0	0	508	568	
3	0	0	0	0	508	568	
4	0	0	0	0	510	568	
5	0	0	0	0	513	568	
6	0	0	0	0	514	568	
7	0	0	0	0	512	568	
8	0	0	0	0	510	568	
9	0	0	0	0	508	568	
10	0	0	0	0	506	568	
11	0	0	0	0	506	568	
12	0	0	0	0	503	568	
13	0	0	0	0	501	568	
14	0	0	0	0	501	568	
15	0	0	0	0	502	568	
0	0	0	0	0	504	568	
1	0	0	0	0	506	568	
2	0	0	0	0	507	568	
3	0	0	0	0	507	568	
4	0	0	0	0	507	568	
5	0	0	0	0	506	568	
6	0	0	0	0	506	568	
7	0	0	0	0	506	568	
8	0	0	0	0	506	568	
9	0	0	0	0	506	568	
10	0	0	0	0	506	568	
11	0	0	0	0	505	568	
12	0	0	0	0	505	568	
13	0	0	0	0	505	568	
14	0	0	0	0	506	568	
15	0	0	0	0	506	568	
0	0	0	0	0	506	568	
1	0	0	0	0	507	568	
2	0	0	0	0	510	568	
3	0	0	0	0	509	568	
4	0	0	0	0	509	568	
5	0	0	0	0	507	568	
6	0	0	0	0	506	568	
7	0	0	0	0	503	568	
8	0	0	0	0	500	568	
9	0	0	0	0	499	568	
10	0	0	0	0	499	568	
11	0	0	0	0	502	568	
12	0	0	0	0	504	568	
13	0	0	0	0	505	568	
14	0	0	0	0	506	568	
15	0	0	0	0	504	568	
0	0	0	0	0	506	568	
1	0	0	0	0	509	568	
2	0	0	0	0	510	568	
3	0	0	0	0	511	568	
4	0	0	0	0	512	568	
5	0	0	0	0	512	568	
6	0	0	0	0	511	568	
7	0	0	0	0	510	568	
8	0	0	0	0	510	568	
9	0	0	0	0	510	568	
10	0	0	0	0	509	568	
11	0	0	0	0	508	568	
12	0	0	0	0	509	568	
13	0	0	0	0	510	568	
14	0	0	0	0	510	568	
15	0	0	0	0	509	568	
0	0	0	0	0	507	568	
1	0	0	0	0	505	568	
2	0	0	0	0	505	568	
3	0	0	0	0	505	568	
4	0	0	0	0	507	568	
5	0	0	0	0	507	568	
6	0	0	0	0	508	568	
7	0	0	0	0	510	569	
8	0	0	0	0	512	568	
9	0	0	0	0	513	569	
10	0	0	0	0	515	568	
11	0	0	0	0	517	568	
12	0	0	0	0	519	568	
13	0	0	0	0	518	568	
14	0	0	0	0	516	569	
15	0	0	0	0	516	569	
0	0	0	0	0	516	569	
1	0	0	0	0	518	569	
2	0	0	0	0	519	569	
3	0	0	0	0	520	569	
4	0	0	0	0	521	569	
5	0	0	0	0	520	569	
6	0	0	0	0	521	569	
7	0	0	0	0	522	569	
8	0	0	0	0	524	569	
9	0	0	0	0	525	569	
10	0	0	0	0	526	569	
11	0	0	0	0	527	569	
12	0	0	0	0	527	569	
13	0	0	0	0	525	569	
14	0	0	0	0	524	569	
15	0	0	0	0	524	569	
0	0	0	0	0	524	569	
1	0	0	0	0	524	569	
2	0	0	0	0	524	569	
3	0	0	0	0	524	569	
4	0	0	0	0	524	569	
5	0	0	0	0	525	569	
6	0	0	0	0	527	569	
7	0	0	0	0	528	569	
8	0	0	0	0	529	569	
9	0	0	0	0	530	569	
10	0	0	0	0	531	569	
11	0	0	0	0	534	569	
12	0	0	0	0	536	569	
13	0	0	0	0	536	569	
14	0	0	0	0	536	569	
15	0	0	0	0	536	569	
0	0	0	0	0	536	569	
1	0	0	0	0	538	569	
2	0	0	0	0	538	569	
3	0	0	0	0	539	569	
4	0	0	0	0	538	569	
5	0	0	0	0	536	569	
6	0	0	0	0	536	569	
7	0	0	0	0	535	569	
8	0	0	0	0	534	569	
9	0	0	0	0	531	569	
10	0	0	0	0	527	569	
11	0	0	0	0	525	569	
12	0	0	0	0	524	569	
13	0	0	0	0	523	569	
14	0	0	0	0	521	569	
15	0	0	0	0	519	569	
0	0	0	0	0	519	569	
1	0	0	0	0	519	569	
2	0	0	0	0	518	569	
3	0	0	0	0	515	569	
4	0	0	0	0	515	569	
5	0	0	0	0	514	569	
6	0	0	0	0	513	569	
7	0	0	0	0	511	569	
8	0	0	0	0	509	569	
9	0	0	0	0	507	569	
10	0	0	0	0	504	569	
11	0	0	0	0	502	569	
12	0	0	0	0	500	569	
13	0	0	0	0	500	569	
14	0	0	0	0	497	569	
15	0	0	0	0	491	569	
0	0	0	0	0	485	569	
1	0	0	0	0	481	570	
2	0	0	0	0	478	569	
3	0	0	0	0	477	570	
4	0	0	0	0	476	569	
5	0	0	0	0	475	569	
6	0	0	0	0	475	570	
7	0	0	0	0	476	570	
8	0	0	0	0	478	570	
9	0	0	0	0	479	569	
10	0	0	0	0	479	570	
11	0	0	0	0	477	570	
12	0	0	0	0	474	570	
13	0	0	0	0	472	570	
14	0	0	0	0	472	570	
15	0	0	0	0	471	570	
0	0	0	0	0	470	570	
1	0	0	0	0	470	570	
2	0	0	0	0	471	570	
3	0	0	0	0	472	570	
4	0	0	0	0	473	569	
5	0	0	0	0	475	570	
6	0	0	0	0	476	570	
7	0	0	0	0	476	570	
8	0	0	0	0	476	570	
9	0	0	0	0	478	570	
10	0	0	0	0	479	570	
11	0	0	0	0	482	570	
12	0	0	0	0	486	570	
13	0	0	0	0	487	570	
14	0	0	0	0	487	570	
15	0	0	0	0	489	570	
0	0	0	0	0	489	570	
1	0	0	0	0	487	570	
2	0	0	0	0	486	570	
3	0	0	0	0	485	570	
4	0	0	0	0	485	570	
5	0	0	0	0	483	570	
6	0	0	0	0	483	570	
7	0	0	0	0	484	570	
8	0	0	0	0	485	570	
9	0	0	0	0	486	570	
10	0	0	0	0	486	570	
11	0	0	0	0	487	570	
12	0	0	0	0	488	570	
13	0	0	0	0	487	570	
14	0	0	0	0	485	570	
15	0	0	0	0	484	570	
0	0	0	0	0	483	570	
1	0	0	0	0	481	570	
2	0	0	0	0	478	570	
3	0	0	0	0	472	570	
4	0	0	0	0	469	570	
5	0	0	0	0	463	571	
6	0	0	0	0	463	570	
7	0	0	0	0	464	571	
8	0	0	0	0	465	570	
9	0	0	0	0	466	571	
10	0	0	0	0	467	571	
11	0	0	0	0	470	571	
12	0	0	0	0	474	571	
13	0	0	0	0	478	571	
14	0	0	0	0	482	571	
15	0	0	0	0	487	571	
0	0	0	0	0	494	571	
1	0	0	0	0	502	571	
2	0	0	0	0	515	570	
3	0	0	0	0	531	571	
4	0	0	0	0	547	571	
5	0	0	0	0	564	571	
6	0	0	0	0	583	571	
7	0	0	0	0	605	571	
8	0	0	0	0	627	571	
9	0	0	0	0	652	571	
10	0	0	0	0	676	571	
11	0	0	0	0	701	571	
12	0	0	0	0	723	570	
13	0	0	0	0	744	571	
14	0	0	0	0	766	571	
15	0	0	0	0	787	571	
0	0	0	0	0	802	571	
1	0	0	0	0	812	570	
2	0	0	0	0	817	571	
3	0	0	0	0	819	571	
4	0	0	0	0	818	571	
5	0	0	0	0	812	571	
6	0	0	0	0	802	571	
7	0	0	0	0	782	571	
8	0	0	0	0	755	571	
9	0	0	0	0	725	571	
10	0	0	0	0	695	571	
11	0	0	0	0	663	571	
12	0	0	0	0	633	571	
13	0	0	0	0	605	571	
14	0	0	0	0	577	571	
15	0	0	0	0	548	571	
0	0	0	0	0	518	571	
1	0	0	0	0	489	571	
2	0	0	0	0	464	571	
3	0	0	0	0	442	571	
4	0	0	0	0	423	571	
5	0	0	0	0	406	571	
6	0	0	0	0	391	571	
7	0	0	0	0	380	571	
8	0	0	0	0	371	571	
9	0	0	0	0	365	571	
10	0	0	0	0	365	571	
11	0	0	0	0	366	571	
12	0	0	0	0	368	571	
13	0	0	0	0	370	571	
14	0	0	0	0	373	571	
15	0	0	0	0	374	571	
0	0	0	0	0	374	572	
1	0	0	0	0	375	571	
2	0	0	0	0	378	571	
3	0	0	0	0	381	571	
4	0	0	0	0	385	571	
5	0	0	0	0	389	572	
6	0	0	0	0	391	571	
7	0	0	0	0	392	572	
8	0	0	0	0	394	571	
9	0	0	0	0	396	571	
10	0	0	0	0	398	572	
11	0	0	0	0	404	572	
12	0	0	0	0	411	571	
13	0	0	0	0	418	572	
14	0	0	0	0	424	571	
15	0	0	0	0	432	572	
0	0	0	0	0	439	572	
1	0	0	0	0	441	572	
2	0	0	0	0	445	572	
3	0	0	0	0	448	572	
4	0	0	0	0	450	571	
5	0	0	0	0	453	572	
6	0	0	0	0	455	572	
7	0	0	0	0	455	572	
8	0	0	0	0	456	572	
9	0	0	0	0	457	572	
10	0	0	0	0	457	572	
11	0	0	0	0	460	572	
12	0	0	0	0	464	572	
13	0	0	0	0	467	572	
14	0	0	0	0	467	572	
15	0	0	0	0	468	572	
0	0	0	0	0	471	572	
1	0	0	0	0	473	572	
2	0	0	0	0	473	572	
3	0	0	0	0	473	572	
4	0	0	0	0	473	572	
5	0	0	0	0	472	572	
6	0	0	0	0	473	572	
7	0	0	0	0	472	572	
8	0	0	0	0	471	572	
9	0	0	0	0	470	572	
10	0	0	0	0	471	572	
11	0	0	0	0	472	572	
12	0	0	0	0	473	572	
13	0	0	0	0	473	572	
14	0	0	0	0	475	572	
15	0	0	0	0	477	572	
0	0	0	0	0	479	572	
1	0	0	0	0	481	572	
2	0	0	0	0	482	572	
3	0	0	0	0	483	572	
4	0	0	0	0	485	572	
5	0	0	0	0	486	572	
6	0	0	0	0	486	572	
7	0	0	0	0	485	572	
8	0	0	0	0	483	572	
9	0	0	0	0	480	572	
10	0	0	0	0	478	572	
11	0	0	0	0	478	572	
12	0	0	0	0	479	572	
13	0	0	0	0	480	572	
14	0	0	0	0	482	572	
15	0	0	0	0	484	572	
0	0	0	0	0	486	572	
1	0	0	0	0	486	572	
2	0	0	0	0	486	572	
3	0	0	0	0	486	572	
4	0	0	0	0	487	572	
5	0	0	0	0	487	572	
6	0	0	0	0	487	572	
7	0	0	0	0	486	572	
8	0	0	0	0	486	572	
9	0	0	0	0	486	572	
10	0	0	0	0	486	572	
11	0	0	0	0	485	572	
12	0	0	0	0	484	572	
13	0	0	0	0	484	572	
14	0	0	0	0	483	572	
15	0	0	0	0	483	572	
0	0	0	0	0	483	572	
1	0	0	0	0	484	572	
2	0	0	0	0	484	572	
3	0	0	0	0	485	572	
4	0	0	0	0	486	572	
5	0	0	0	0	486	572	
6	0	0	0	0	485	572	
7	0	0	0	0	484	572	
8	0	0	0	0	483	572	
9	0	0	0	0	482	572	
10	0	0	0	0	482	572	
11	0	0	0	0	482	573	
12	0	0	0	0	482	572	
13	0	0	0	0	483	573	
14	0	0	0	0	483	572	
15	0	0	0	0	484	573	
0	0	0	0	0	486	573	
1	0	0	0	0	488	572	
2	0	0	0	0	489	573	
3	0	0	0	0	490	572	
4	0	0	0	0	491	573	
5	0	0	0	0	492	572	
6	0	0	0	0	492	572	
7	0	0	0	0	492	573	
8	0	0	0	0	492	572	
9	0	0	0	0	492	572	
10	0	0	0	0	491	573	
11	0	0	0	0	491	573	
12	0	0	0	0	492	573	
13	0	0	0	0	492	572	
14	0	0	0	0	492	573	
15	0	0	0	0	493	573	
0	0	0	0	0	492	573	
1	0	0	0	0	494	573	
2	0	0	0	0	493	573	
3	0	0	0	0	495	573	
4	0	0	0	0	496	573	
5	0	0	0	0	496	573	
6	0	0	0	0	497	573	
7	0	0	0	0	497	573	
8	0	0	0	0	496	573	
9	0	0	0	0	496	573	
10	0	0	0	0	494	573	
11	0	0	0	0	492	573	
12	0	0	0	0	492	573	
13	0	0	0	0	492	573	
14	0	0	0	0	494	573	
15	0	0	0	0	495	573	
0	0	0	0	0	498	573	
1	0	0	0	0	500	573	
2	0	0	0	0	503	573	
3	0	0	0	0	507	573	
4	0	0	0	0	510	573	
5	0	0	0	0	512	573	
6	0	0	0	0	512	573	
7	0	0	0	0	514	573	
8	0	0	0	0	515	573	
9	0	0	0	0	516	573	
10	0	0	0	0	517	573	
11	0	0	0	0	515	573	
12	0	0	0	0	515	573	
13	0	0	0	0	517	573	
14	0	0	0	0	519	573	
15	0	0	0	0	520	573	
0	0	0	0	0	522	573	
1	0	0	0	0	523	573	
2	0	0	0	0	522	573	
3	0	0	0	0	524	573	
4	0	0	0	0	525	573	
5	0	0	0	0	526	573	
6	0	0	0	0	526	573	
7	0	0	0	0	526	573	
8	0	0	0	0	527	573	
9	0	0	0	0	528	573	
10	0	0	0	0	529	573	
11	0	0	0	0	530	573	
12	0	0	0	0	531	573	
13	0	0	0	0	531	573	
14	0	0	0	0	530	574	
15	0	0	0	0	531	573	
0	0	0	0	0	533	573	
1	0	0	0	0	533	573	
2	0	0	0	0	534	573	
3	0	0	0	0	534	573	
4	0	0	0	0	534	573	
5	0	0	0	0	533	573	
6	0	0	0	0	533	573	
7	0	0	0	0	532	573	
8	0	0	0	0	532	573	
9	0	0	0	0	533	573	
10	0	0	0	0	534	573	
11	0	0	0	0	533	573	
12	0	0	0	0	533	574	
13	0	0	0	0	532	573	
14	0	0	0	0	531	573	
15	0	0	0	0	532	574	
0	0	0	0	0	533	573	
1	0	0	0	0	535	573	
2	0	0	0	0	536	574	
3	0	0	0	0	537	573	
4	0	0	0	0	537	573	
5	0	0	0	0	536	574	
6	0	0	0	0	536	573	
7	0	0	0	0	536	573	
8	0	0	0	0	535	573	
9	0	0	0	0	534	574	
10	0	0	0	0	532	574	
11	0	0	0	0	531	573	
12	0	0	0	0	530	573	
13	0	0	0	0	529	573	
14	0	0	0	0	529	573	
15	0	0	0	0	528	574	
0	0	0	0	0	528	574	
1	0	0	0	0	527	574	
2	0	0	0	0	527	574	
3	0	0	0	0	528	574	
4	0	0	0	0	528	574	
5	0	0	0	0	527	574	
6	0	0	0	0	524	574	
7	0	0	0	0	526	574	
8	0	0	0	0	526	574	
9	0	0	0	0	528	574	
10	0	0	0	0	529	574	
11	0	0	0	0	529	574	
12	0	0	0	0	528	574	
13	0	0	0	0	526	574	
14	0	0	0	0	525	574	
15	0	0	0	0	525	574	
0	0	0	0	0	525	574	
1	0	0	0	0	524	574	
2	0	0	0	0	521	574	
3	0	0	0	0	521	574	
4	0	0	0	0	524	574	
5	0	0	0	0	525	574	
6	0	0	0	0	523	574	
7	0	0	0	0	521	574	
8	0	0	0	0	521	574	
9	0	0	0	0	522	573	
10	0	0	0	0	523	574	
11	0	0	0	0	519	574	
12	0	0	0	0	519	574	
13	0	0	0	0	517	574	
14	0	0	0	0	515	574	
15	0	0	0	0	514	574	
0	0	0	0	0	513	574	
1	0	0	0	0	513	574	
2	0	0	0	0	512	574	
3	0	0	0	0	512	574	
4	0	0	0	0	512	574	
5	0	0	0	0	511	574	
6	0	0	0	0	511	574	
7	0	0	0	0	512	574	
8	0	0	0	0	512	574	
9	0	0	0	0	513	574	
10	0	0	0	0	512	574	
11	0	0	0	0	511	574	
12	0	0	0	0	509	574	
13	0	0	0	0	508	574	
14	0	0	0	0	508	574	
15	0	0	0	0	505	574	
0	0	0	0	0	502	574	
1	0	0	0	0	498	574	
2	0	0	0	0	497	574	
3	0	0	0	0	496	574	
4	0	0	0	0	494	574	
5	0	0	0	0	495	574	
6	0	0	0	0	496	574	
7	0	0	0	0	498	574	
8	0	0	0	0	500	574	
9	0	0	0	0	503	574	
10	0	0	0	0	507	574	
11	0	0	0	0	506	574	
12	0	0	0	0	509	574	
13	0	0	0	0	510	574	
14	0	0	0	0	509	574	
15	0	0	0	0	508	574	
0	0	0	0	0	504	574	
1	0	0	0	0	500	574	
2	0	0	0	0	497	574	
3	0	0	0	0	491	574	
4	0	0	0	0	487	574	
5	0	0	0	0	487	574	
6	0	0	0	0	486	574	
7	0	0	0	0	484	574	
8	0	0	0	0	484	574	
9	0	0	0	0	482	574	
10	0	0	0	0	478	574	
11	0	0	0	0	476	574	
12	0	0	0	0	476	574	
13	0	0	0	0	473	574	
14	0	0	0	0	472	574	
15	0	0	0	0	472	574	
0	0	0	0	0	472	574	
1	0	0	0	0	472	574	
2	0	0	0	0	474	574	
3	0	0	0	0	475	574	
4	0	0	0	0	476	574	
5	0	0	0	0	475	574	
6	0	0	0	0	476	574	
7	0	0	0	0	479	574	
8	0	0	0	0	480	574	
9	0	0	0	0	479	574	
10	0	0	0	0	477	574	
11	0	0	0	0	475	574	
12	0	0	0	0	476	574	
13	0	0	0	0	478	574	
14	0	0	0	0	480	574	
15	0	0	0	0	480	574	
0	0	0	0	0	477	574	
1	0	0	0	0	476	574	
2	0	0	0	0	474	574	
3	0	0	0	0	471	574	
4	0	0	0	0	471	574	
5	0	0	0	0	472	574	
6	0	0	0	0	470	574	
7	0	0	0	0	468	574	
8	0	0	0	0	468	574	
9	0	0	0	0	469	574	
10	0	0	0	0	471	574	
11	0	0	0	0	471	574	
12	0	0	0	0	470	574	
13	0	0	0	0	471	574	
14	0	0	0	0	470	574	
15	0	0	0	0	470	574	
0	0	0	0	0	470	574	
1	0	0	0	0	470	574	
2	0	0	0	0	469	574	
3	0	0	0	0	470	574	
4	0	0	0	0	468	574	
5	0	0	0	0	469	574	
6	0	0	0	0	469	574	
7	0	0	0	0	469	574	
8	0	0	0	0	470	574	
9	0	0	0	0	472	574	
10	0	0	0	0	472	574	
11	0	0	0	0	473	574	
12	0	0	0	0	475	574	
13	0	0	0	0	476	574	
14	0	0	0	0	476	574	
15	0	0	0	0	476	574	
0	0	0	0	0	476	574	
1	0	0	0	0	476	574	
2	0	0	0	0	475	574	
3	0	0	0	0	475	574	
4	0	0	0	0	473	574	
5	0	0	0	0	473	574	
6	0	0	0	0	473	574	
7	0	0	0	0	473	574	
8	0	0	0	0	473	574	
9	0	0	0	0	472	574	
10	0	0	0	0	473	574	
11	0	0	0	0	474	574	
12	0	0	0	0	473	574	
13	0	0	0	0	472	574	
14	0	0	0	0	472	574	
15	0	0	0	0	474	574	
0	0	0	0	0	474	574	
1	0	0	0	0	472	574	
2	0	0	0	0	471	574	
3	0	0	0	0	469	574	
4	0	0	0	0	468	574	
5	0	0	0	0	468	574	
6	0	0	0	0	468	574	
7	0	0	0	0	469	574	
8	0	0	0	0	471	574	
9	0	0	0	0	472	574	
10	0	0	0	0	474	574	
11	0	0	0	0	475	574	
12	0	0	0	0	477	574	
13	0	0	0	0	478	574	
14	0	0	0	0	478	574	
15	0	0	0	0	477	574	
0	0	0	0	0	476	574	
1	0	0	0	0	474	574	
2	0	0	0	0	473	574	
3	0	0	0	0	472	574	
4	0	0	0	0	471	574	
5	0	0	0	0	471	574	
6	0	0	0	0	472	574	
7	0	0	0	0	474	574	
8	0	0	0	0	475	574	
9	0	0	0	0	476	574	
10	0	0	0	0	477	574	
11	0	0	0	0	478	574	
12	0	0	0	0	480	574	
13	0	0	0	0	479	574	
14	0	0	0	0	480	574	
15	0	0	0	0	479	574	
0	0	0	0	0	478	574	
1	0	0	0	0	478	574	
2	0	0	0	0	477	574	
3	0	0	0	0	476	574	
4	0	0	0	0	476	574	
5	0	0	0	0	476	574	
6	0	0	0	0	475	574	
7	0	0	0	0	476	574	
8	0	0	0	0	474	574	
9	0	0	0	0	473	573	
10	0	0	0	0	474	574	
11	0	0	0	0	476	574	
12	0	0	0	0	478	574	
13	0	0	0	0	478	573	
14	0	0	0	0	478	574	
15	0	0	0	0	480	574	
0	0	0	0	0	479	574	
1	0	0	0	0	477	574	
2	0	0	0	0	476	574	
3	0	0	0	0	475	573	
4	0	0	0	0	473	573	
5	0	0	0	0	471	573	
6	0	0	0	0	471	574	
7	0	0	0	0	470	574	
8	0	0	0	0	470	574	
9	0	0	0	0	470	574	
10	0	0	0	0	470	574	
11	0	0	0	0	470	574	
12	0	0	0	0	472	573	
13	0	0	0	0	475	574	
14	0	0	0	0	475	574	
15	0	0	0	0	476	574	
0	0	0	0	0	478	573	
1	0	0	0	0	480	573	
2	0	0	0	0	480	574	
3	0	0	0	0	477	574	
4	0	0	0	0	474	573	
5	0	0	0	0	473	574	
6	0	0	0	0	473	573	
7	0	0	0	0	472	573	
8	0	0	0	0	471	574	
9	0	0	0	0	469	573	
10	0	0	0	0	470	573	
11	0	0	0	0	470	573	
12	0	0	0	0	472	573	
13	0	0	0	0	475	573	
14	0	0	0	0	479	573	
15	0	0	0	0	481	574	
0	0	0	0	0	481	573	
1	0	0	0	0	481	573	
2	0	0	0	0	482	573	
3	0	0	0	0	482	573	
4	0	0	0	0	482	573	
5	0	0	0	0	481	573	
6	0	0	0	0	482	574	
7	0	0	0	0	483	573	
8	0	0	0	0	483	573	
9	0	0	0	0	482	573	
10	0	0	0	0	482	573	
11	0	0	0	0	484	573	
12	0	0	0	0	486	573	
13	0	0	0	0	489	573	
14	0	0	0	0	491	573	
15	0	0	0	0	492	573	
0	0	0	0	0	494	573	
1	0	0	0	0	496	573	
2	0	0	0	0	497	573	
3	0	0	0	0	499	573	
4	0	0	0	0	499	573	
5	0	0	0	0	499	573	
6	0	0	0	0	497	573	
7	0	0	0	0	495	573	
8	0	0	0	0	493	573	
9	0	0	0	0	491	573	
10	0	0	0	0	487	573	
11	0	0	0	0	484	573	
12	0	0	0	0	482	573	
13	0	0	0	0	483	573	
14	0	0	0	0	486	573	
15	0	0	0	0	489	573	
0	0	0	0	0	496	573	
1	0	0	0	0	499	573	
2	0	0	0	0	501	573	
3	0	0	0	0	502	573	
4	0	0	0	0	500	573	
5	0	0	0	0	498	573	
6	0	0	0	0	495	573	
7	0	0	0	0	492	573	
8	0	0	0	0	488	573	
9	0	0	0	0	484	573	
10	0	0	0	0	481	573	
11	0	0	0	0	480	573	
12	0	0	0	0	482	573	
13	0	0	0	0	484	573	
14	0	0	0	0	486	573	
15	0	0	0	0	486	573	
0	0	0	0	0	486	573	
1	0	0	0	0	488	573	
2	0	0	0	0	491	573	
3	0	0	0	0	493	573	
4	0	0	0	0	495	573	
5	0	0	0	0	495	573	
6	0	0	0	0	496	573	
7	0	0	0	0	495	573	
8	0	0	0	0	494	573	
9	0	0	0	0	493	573	
10	0	0	0	0	493	573	
11	0	0	0	0	493	573	
12	0	0	0	0	495	573	
13	0	0	0	0	497	573	
14	0	0	0	0	498	573	
15	0	0	0	0	497	573	
0	0	0	0	0	497	573	
1	0	0	0	0	496	573	
2	0	0	0	0	497	573	
3	0	0	0	0	499	573	
4	0	0	0	0	499	573	
5	0	0	0	0	499	573	
6	0	0	0	0	499	573	
7	0	0	0	0	498	573	
8	0	0	0	0	497	572	
9	0	0	0	0	496	573	
10	0	0	0	0	496	573	
11	0	0	0	0	496	573	
12	0	0	0	0	496	572	
13	0	0	0	0	496	573	
14	0	0	0	0	497	572	
15	0	0	0	0	499	572	
0	0	0	0	0	500	573	
1	0	0	0	0	502	572	
2	0	0	0	0	503	573	
3	0	0	0	0	505	572	
4	0	0	0	0	508	572	
5	0	0	0	0	508	572	
6	0	0	0	0	507	572	
7	0	0	0	0	505	573	
8	0	0	0	0	504	572	
9	0	0	0	0	504	572	
10	0	0	0	0	505	572	
11	0	0	0	0	507	572	
12	0	0	0	0	510	572	
13	0	0	0	0	514	572	
14	0	0	0	0	516	572	
15	0	0	0	0	516	572	
0	0	0	0	0	514	572	
1	0	0	0	0	511	572	
2	0	0	0	0	510	572	
3	0	0	0	0	511	572	
4	0	0	0	0	513	572	
5	0	0	0	0	515	572	
6	0	0	0	0	518	572	
7	0	0	0	0	520	572	
8	0	0	0	0	521	572	
9	0	0	0	0	520	572	
10	0	0	0	0	522	572	
11	0	0	0	0	523	572	
12	0	0	0	0	521	572	
13	0	0	0	0	522	572	
14	0	0	0	0	523	572	
15	0	0	0	0	522	572	
0	0	0	0	0	521	572	
1	0	0	0	0	522	572	
2	0	0	0	0	524	572	
3	0	0	0	0	527	572	
4	0	0	0	0	531	572	
5	0	0	0	0	536	572	
6	0	0	0	0	537	572	
7	0	0	0	0	537	572	
8	0	0	0	0	539	572	
9	0	0	0	0	538	572	
10	0	0	0	0	536	572	
11	0	0	0	0	536	572	
12	0	0	0	0	534	572	
13	0	0	0	0	531	572	
14	0	0	0	0	529	572	
15	0	0	0	0	528	572	
0	0	0	0	0	530	572	
1	0	0	0	0	533	572	
2	0	0	0	0	534	572	
3	0	0	0	0	534	572	
4	0	0	0	0	534	572	
5	0	0	0	0	533	572	
6	0	0	0	0	534	572	
7	0	0	0	0	533	572	
8	0	0	0	0	531	572	
9	0	0	0	0	529	572	
10	0	0	0	0	526	572	
11	0	0	0	0	525	572	
12	0	0	0	0	523	572	
13	0	0	0	0	519	572	
14	0	0	0	0	517	572	
15	0	0	0	0	516	572	
0	0	0	0	0	516	572	
1	0	0	0	0	513	572	
2	0	0	0	0	511	572	
3	0	0	0	0	510	572	
4	0	0	0	0	508	572	
5	0	0	0	0	504	572	
6	0	0	0	0	500	572	
7	0	0	0	0	494	572	
8	0	0	0	0	490	572	
9	0	0	0	0	486	572	
10	0	0	0	0	483	572	
11	0	0	0	0	480	572	
12	0	0	0	0	476	572	
13	0	0	0	0	473	572	
14	0	0	0	0	471	572	
15	0	0	0	0	468	572	
0	0	0	0	0	466	572	
1	0	0	0	0	466	572	
2	0	0	0	0	466	572	
3	0	0	0	0	465	572	
4	0	0	0	0	465	572	
5	0	0	0	0	465	572	
6	0	0	0	0	465	572	
7	0	0	0	0	466	572	
8	0	0	0	0	466	572	
9	0	0	0	0	464	572	
10	0	0	0	0	464	572	
11	0	0	0	0	465	572	
12	0	0	0	0	466	572	
13	0	0	0	0	464	572	
14	0	0	0	0	463	572	
15	0	0	0	0	462	572	
0	0	0	0	0	461	572	
1	0	0	0	0	463	572	
2	0	0	0	0	463	572	
3	0	0	0	0	463	572	
4	0	0	0	0	464	572	
5	0	0	0	0	464	572	
6	0	0	0	0	464	572	
7	0	0	0	0	466	572	
8	0	0	0	0	469	572	
9	0	0	0	0	471	572	
10	0	0	0	0	472	572	
11	0	0	0	0	473	572	
12	0	0	0	0	473	572	
13	0	0	0	0	472	572	
14	0	0	0	0	468	572	
15	0	0	0	0	465	572	
0	0	0	0	0	465	572	
1	0	0	0	0	464	572	
2	0	0	0	0	465	572	
3	0	0	0	0	466	571	
4	0	0	0	0	468	572	
5	0	0	0	0	471	572	
6	0	0	0	0	473	571	
7	0	0	0	0	473	572	
8	0	0	0	0	473	572	
9	0	0	0	0	473	572	
10	0	0	0	0	471	572	
11	0	0	0	0	467	572	
12	0	0	0	0	463	572	
13	0	0	0	0	457	572	
14	0	0	0	0	452	571	
15	0	0	0	0	448	572	
0	0	0	0	0	446	571	
1	0	0	0	0	444	572	
2	0	0	0	0	445	571	
3	0	0	0	0	449	572	
4	0	0	0	0	454	571	
5	0	0	0	0	459	571	
6	0	0	0	0	465	571	
7	0	0	0	0	470	571	
8	0	0	0	0	477	571	
9	0	0	0	0	485	572	
10	0	0	0	0	494	571	
11	0	0	0	0	503	572	
12	0	0	0	0	515	571	
13	0	0	0	0	529	571	
14	0	0	0	0	543	572	
15	0	0	0	0	560	572	
0	0	0	0	0	580	572	
1	0	0	0	0	600	572	
2	0	0	0	0	621	571	
3	0	0	0	0	645	571	
4	0	0	0	0	667	571	
5	0	0	0	0	689	571	
6	0	0	0	0	710	571	
7	0	0	0	0	729	571	
8	0	0	0	0	753	571	
9	0	0	0	0	774	571	
10	0	0	0	0	789	571	
11	0	0	0	0	795	571	
12	0	0	0	0	795	571	
13	0	0	0	0	793	571	
14	0	0	0	0	789	571	
15	0	0	0	0	782	571	
0	0	0	0	0	765	571	
1	0	0	0	0	740	571	
2	0	0	0	0	713	571	
3	0	0	0	0	682	571	
4	0	0	0	0	651	571	
5	0	0	0	0	617	571	
6	0	0	0	0	585	571	
7	0	0	0	0	554	571	
8	0	0	0	0	524	571	
9	0	0	0	0	495	571	
10	0	0	0	0	467	571	
11	0	0	0	0	442	571	
12	0	0	0	0	422	571	
13	0	0	0	0	404	571	
14	0	0	0	0	390	571	
15	0	0	0	0	381	571	
0	0	0	0	0	375	571	
1	0	0	0	0	370	571	
2	0	0	0	0	368	571	
3	0	0	0	0	369	571	
4	0	0	0	0	369	571	
5	0	0	0	0	369	571	
6	0	0	0	0	369	571	
7	0	0	0	0	373	571	
8	0	0	0	0	376	571	
9	0	0	0	0	379	571	
10	0	0	0	0	383	571	
11	0	0	0	0	387	571	
12	0	0	0	0	391	571	
13	0	0	0	0	397	571	
14	0	0	0	0	399	571	
15	0	0	0	0	401	571	
0	0	0	0	0	405	571	
1	0	0	0	0	409	571	
2	0	0	0	0	414	571	
3	0	0	0	0	419	571	
4	0	0	0	0	426	571	
5	0	0	0	0	432	571	
6	0	0	0	0	438	571	
7	0	0	0	0	444	571	
8	0	0	0	0	448	571	
9	0	0	0	0	451	571	
10	0	0	0	0	456	571	
11	0	0	0	0	460	571	
12	0	0	0	0	465	571	
13	0	0	0	0	466	571	
14	0	0	0	0	467	571	
15	0	0	0	0	471	571	
0	0	0	0	0	472	571	
1	0	0	0	0	470	571	
2	0	0	0	0	469	571	
3	0	0	0	0	469	571	
4	0	0	0	0	471	571	
5	0	0	0	0	472	571	
6	0	0	0	0	474	571	
7	0	0	0	0	477	571	
8	0	0	0	0	479	571	
9	0	0	0	0	479	571	
10	0	0	0	0	479	571	
11	0	0	0	0	482	571	
12	0	0	0	0	485	571	
13	0	0	0	0	487	571	
14	0	0	0	0	489	571	
15	0	0	0	0	491	571	
0	0	0	0	0	490	571	
1	0	0	0	0	491	571	
2	0	0	0	0	492	571	
3	0	0	0	0	491	571	
4	0	0	0	0	491	571	
5	0	0	0	0	488	571	
6	0	0	0	0	489	570	
7	0	0	0	0	490	570	
8	0	0	0	0	493	571	
9	0	0	0	0	495	571	
10	0	0	0	0	497	571	
11	0	0	0	0	498	571	
12	0	0	0	0	501	570	
13	0	0	0	0	504	570	
14	0	0	0	0	506	571	
15	0	0	0	0	507	570	
0	0	0	0	0	508	571	
1	0	0	0	0	507	570	
2	0	0	0	0	507	570	
3	0	0	0	0	507	570	
4	0	0	0	0	506	571	
5	0	0	0	0	504	570	
6	0	0	0	0	504	570	
7	0	0	0	0	503	571	
8	0	0	0	0	505	570	
9	0	0	0	0	508	570	
10	0	0	0	0	507	570	
11	0	0	0	0	504	570	
12	0	0	0	0	500	570	
13	0	0	0	0	496	570	
14	0	0	0	0	494	570	
15	0	0	0	0	491	570	
0	0	0	0	0	490	570	
1	0	0	0	0	491	570	
2	0	0	0	0	492	570	
3	0	0	0	0	493	570	
4	0	0	0	0	495	570	
5	0	0	0	0	497	570	
6	0	0	0	0	497	570	
7	0	0	0	0	495	570	
8	0	0	0	0	494	570	
9	0	0	0	0	494	570	
10	0	0	0	0	496	570	
11	0	0	0	0	494	570	
12	0	0	0	0	494	570	
13	0	0	0	0	493	570	
14	0	0	0	0	494	570	
15	0	0	0	0	495	570	
0	0	0	0	0	496	570	
1	0	0	0	0	499	570	
2	0	0	0	0	502	570	
3	0	0	0	0	507	570	
4	0	0	0	0	509	570	
5	0	0	0	0	510	570	
6	0	0	0	0	507	570	
7	0	0	0	0	507	570	
8	0	0	0	0	508	570	
9	0	0	0	0	509	570	
10	0	0	0	0	507	570	
11	0	0	0	0	505	569	
12	0	0	0	0	505	570	
13	0	0	0	0	505	570	
14	0	0	0	0	508	570	
15	0	0	0	0	507	570	
0	0	0	0	0	505	569	
1	0	0	0	0	503	570	
2	0	0	0	0	503	569	
3	0	0	0	0	500	569	
4	0	0	0	0	500	569	
5	0	0	0	0	503	569	
6	0	0	0	0	503	569	
7	0	0	0	0	503	570	
8	0	0	0	0	502	570	
9	0	0	0	0	501	569	
10	0	0	0	0	500	569	
11	0	0	0	0	502	570	
12	0	0	0	0	503	569	
13	0	0	0	0	507	569	
14	0	0	0	0	508	569	
15	0	0	0	0	510	569	
0	0	0	0	0	512	569	
1	0	0	0	0	511	569	
2	0	0	0	0	510	569	
3	0	0	0	0	509	569	
4	0	0	0	0	505	569	
5	0	0	0	0	502	569	
6	0	0	0	0	499	569	
7	0	0	0	0	498	569	
8	0	0	0	0	498	569	
9	0	0	0	0	497	569	
10	0	0	0	0	497	569	
11	0	0	0	0	499	569	
12	0	0	0	0	500	569	
13	0	0	0	0	503	569	
14	0	0	0	0	504	569	
15	0	0	0	0	508	569	
0	0	0	0	0	511	569	
1	0	0	0	0	512	569	
2	0	0	0	0	512	569	
3	0	0	0	0	511	569	
4	0	0	0	0	511	569	
5	0	0	0	0	509	569	
6	0	0	0	0	508	569	
7	0	0	0	0	506	569	
8	0	0	0	0	504	569	
9	0	0	0	0	502	569	
10	0	0	0	0	500	569	
11	0	0	0	0	500	569	
12	0	0	0	0	502	569	
13	0	0	0	0	502	569	
14	0	0	0	0	504	569	
15	0	0	0	0	505	569	
0	0	0	0	0	506	569	
1	0	0	0	0	508	569	
2	0	0	0	0	509	569	
3	0	0	0	0	510	569	
4	0	0	0	0	511	569	
5	0	0	0	0	511	569	
6	0	0	0	0	511	569	
7	0	0	0	0	511	569	
8	0	0	0	0	511	569	
9	0	0	0	0	512	569	
10	0	0	0	0	511	569	
11	0	0	0	0	511	569	
12	0	0	0	0	511	569	
13	0	0	0	0	510	569	
14	0	0	0	0	509	569	
15	0	0	0	0	511	569	
0	0	0	0	0	513	569	
1	0	0	0	0	514	569	
2	0	0	0	0	513	568	
3	0	0	0	0	513	569	
4	0	0	0	0	514	569	
5	0	0	0	0	515	569	
6	0	0	0	0	516	568	
7	0	0	0	0	516	569	
8	0	0	0	0	516	569	
9	0	0	0	0	517	568	
10	0	0	0	0	518	569	
11	0	0	0	0	519	569	
12	0	0	0	0	519	569	
13	0	0	0	0	521	569	
14	0	0	0	0	521	569	
15	0	0	0	0	523	569	
0	0	0	0	0	525	569	
1	0	0	0	0	527	569	
2	0	0	0	0	527	568	
3	0	0	0	0	528	569	
4	0	0	0	0	529	568	
5	0	0	0	0	527	568	
6	0	0	0	0	524	568	
7	0	0	0	0	523	568	
8	0	0	0	0	521	568	
9	0	0	0	0	521	568	
10	0	0	0	0	519	568	
11	0	0	0	0	520	568	
12	0	0	0	0	519	568	
13	0	0	0	0	519	568	
14	0	0	0	0	519	568	
15	0	0	0	0	518	568	
0	0	0	0	0	519	569	
1	0	0	0	0	519	568	
2	0	0	0	0	521	568	
3	0	0	0	0	521	568	
4	0	0	0	0	522	568	
5	0	0	0	0	521	568	
6	0	0	0	0	518	568	
7	0	0	0	0	518	568	
8	0	0	0	0	518	568	
9	0	0	0	0	518	568	
10	0	0	0	0	517	568	
11	0	0	0	0	515	568	
12	0	0	0	0	515	568	
13	0	0	0	0	516	568	
14	0	0	0	0	514	568	
15	0	0	0	0	515	568	
0	0	0	0	0	514	568	
1	0	0	0	0	516	568	
2	0	0	0	0	517	568	
3	0	0	0	0	518	568	
4	0	0	0	0	517	568	
5	0	0	0	0	516	568	
6	0	0	0	0	515	568	
7	0	0	0	0	514	568	
8	0	0	0	0	513	568	
9	0	0	0	0	511	568	
10	0	0	0	0	510	568	
11	0	0	0	0	510	568	
12	0	0	0	0	509	568	
13	0	0	0	0	507	568	
14	0	0	0	0	507	568	
15	0	0	0	0	508	568	
0	0	0	0	0	509	568	
1	0	0	0	0	508	568	
2	0	0	0	0	508	568	
3	0	0	0	0	507	568	
4	0	0	0	0	506	568	
5	0	0	0	0	506	568	
6	0	0	0	0	505	568	
7	0	0	0	0	504	568	
8	0	0	0	0	502	568	
9	0	0	0	0	500	568	
10	0	0	0	0	501	568	
11	0	0	0	0	501	568	
12	0	0	0	0	500	568	
13	0	0	0	0	502	568	
14	0	0	0	0	502	568	
15	0	0	0	0	501	568	
0	0	0	0	0	502	568	
1	0	0	0	0	502	568	
2	0	0	0	0	502	568	
3	0	0	0	0	502	568	
4	0	0	0	0	503	568	
5	0	0	0	0	504	568	
6	0	0	0	0	504	568	
7	0	0	0	0	504	568	
8	0	0	0	0	504	568	
9	0	0	0	0	503	568	
10	0	0	0	0	504	568	
11	0	0	0	0	502	568	
12	0	0	0	0	499	568	
13	0	0	0	0	496	568	
14	0	0	0	0	492	568	
15	0	0	0	0	489	568	
0	0	0	0	0	487	568	
1	0	0	0	0	488	568	
2	0	0	0	0	489	568	
3	0	0	0	0	488	568	
4	0	0	0	0	489	568	
5	0	0	0	0	489	568	
6	0	0	0	0	490	568	
7	0	0	0	0	492	568	
8	0	0	0	0	493	568	
9	0	0	0	0	491	568	
10	0	0	0	0	491	568	
11	0	0	0	0	491	568	
12	0	0	0	0	490	568	
13	0	0	0	0	489	568	
14	0	0	0	0	490	568	
15	0	0	0	0	491	568	
0	0	0	0	0	491	568	
1	0	0	0	0	490	568	
2	0	0	0	0	490	568	
3	0	0	0	0	490	568	
4	0	0	0	0	491	567	
5	0	0	0	0	492	568	
6	0	0	0	0	492	568	
7	0	0	0	0	492	568	
8	0	0	0	0	491	568	
9	0	0	0	0	492	568	
10	0	0	0	0	492	568	
11	0	0	0	0	494	568	
12	0	0	0	0	493	567	
13	0	0	0	0	493	568	
14	0	0	0	0	493	567	
15	0	0	0	0	493	568	
0	0	0	0	0	492	568	
1	0	0	0	0	492	567	
2	0	0	0	0	492	567	
3	0	0	0	0	492	567	
4	0	0	0	0	492	568	
5	0	0	0	0	492	567	
6	0	0	0	0	494	568	
7	0	0	0	0	496	568	
8	0	0	0	0	498	567	
9	0	0	0	0	498	568	
10	0	0	0	0	499	568	
11	0	0	0	0	499	567	
12	0	0	0	0	499	567	
13	0	0	0	0	497	567	
14	0	0	0	0	496	568	
15	0	0	0	0	497	567	
0	0	0	0	0	496	568	
1	0	0	0	0	496	567	
2	0	0	0	0	496	567	
3	0	0	0	0	497	567	
4	0	0	0	0	497	567	
5	0	0	0	0	499	567	
6	0	0	0	0	501	567	
7	0	0	0	0	502	567	
8	0	0	0	0	503	567	
9	0	0	0	0	502	567	
10	0	0	0	0	502	567	
11	0	0	0	0	502	567	
12	0	0	0	0	502	567	
13	0	0	0	0	504	567	
14	0	0	0	0	503	567	
15	0	0	0	0	502	567	
0	0	0	0	0	500	567	
1	0	0	0	0	501	567	
2	0	0	0	0	504	567	
3	0	0	0	0	504	567	
4	0	0	0	0	505	567	
5	0	0	0	0	508	567	
6	0	0	0	0	508	567	
7	0	0	0	0	508	567	
8	0	0	0	0	508	567	
9	0	0	0	0	508	567	
10	0	0	0	0	509	567	
11	0	0	0	0	510	567	
12	0	0	0	0	512	567	
13	0	0	0	0	514	567	
14	0	0	0	0	512	567	
15	0	0	0	0	509	567	
0	0	0	0	0	507	567	
1	0	0	0	0	506	567	
2	0	0	0	0	506	567	
3	0	0	0	0	508	567	
4	0	0	0	0	509	567	
5	0	0	0	0	510	567	
6	0	0	0	0	512	567	
7	0	0	0	0	512	567	
8	0	0	0	0	515	567	
9	0	0	0	0	517	567	
10	0	0	0	0	517	567	
11	0	0	0	0	515	567	
12	0	0	0	0	513	567	
13	0	0	0	0	513	567	
14	0	0	0	0	513	567	
15	0	0	0	0	512	567	
0	0	0	0	0	514	567	
1	0	0	0	0	515	567	
2	0	0	0	0	513	567	
3	0	0	0	0	513	567	
4	0	0	0	0	515	567	
5	0	0	0	0	515	567	
6	0	0	0	0	515	567	
7	0	0	0	0	516	567	
8	0	0	0	0	518	567	
9	0	0	0	0	518	567	
10	0	0	0	0	518	567	
11	0	0	0	0	519	567	
12	0	0	0	0	518	567	
13	0	0	0	0	517	567	
14	0	0	0	0	518	567	
15	0	0	0	0	519	567	
0	0	0	0	0	519	567	
1	0	0	0	0	517	567	
2	0	0	0	0	518	567	
3	0	0	0	0	517	567	
4	0	0	0	0	517	567	
5	0	0	0	0	518	567	
6	0	0	0	0	518	567	
7	0	0	0	0	516	567	
8	0	0	0	0	516	567	
9	0	0	0	0	517	567	
10	0	0	0	0	519	567	
11	0	0	0	0	521	567	
12	0	0	0	0	522	567	
13	0	0	0	0	522	567	
14	0	0	0	0	521	567	
15	0	0	0	0	522	567	
0	0	0	0	0	522	567	
1	0	0	0	0	523	567	
2	0	0	0	0	523	567	
3	0	0	0	0	523	567	
4	0	0	0	0	521	567	
5	0	0	0	0	521	567	
6	0	0	0	0	521	567	
7	0	0	0	0	523	567	
8	0	0	0	0	524	567	
9	0	0	0	0	524	567	
10	0	0	0	0	524	567	
11	0	0	0	0	524	567	
12	0	0	0	0	525	567	
13	0	0	0	0	526	567	
14	0	0	0	0	523	567	
15	0	0	0	0	521	567	
0	0	0	0	0	520	567	
1	0	0	0	0	520	567	
2	0	0	0	0	519	567	
3	0	0	0	0	519	567	
4	0	0	0	0	519	566	
5	0	0	0	0	518	566	
6	0	0	0	0	518	566	
7	0	0	0	0	519	567	
8	0	0	0	0	520	566	
9	0	0	0	0	521	567	
10	0	0	0	0	522	567	
11	0	0	0	0	524	566	
12	0	0	0	0	525	566	
13	0	0	0	0	527	566	
14	0	0	0	0	527	566	
15	0	0	0	0	526	567	
0	0	0	0	0	525	566	
1	0	0	0	0	525	567	
2	0	0	0	0	525	566	
3	0	0	0	0	524	566	
4	0	0	0	0	523	567	
5	0	0	0	0	521	566	
6	0	0	0	0	523	567	
7	0	0	0	0	523	566	
8	0	0	0	0	524	566	
9	0	0	0	0	524	566	
10	0	0	0	0	526	566	
11	0	0	0	0	526	566	
12	0	0	0	0	527	566	
13	0	0	0	0	526	566	
14	0	0	0	0	525	566	
15	0	0	0	0	524	566	
0	0	0	0	0	523	566	
1	0	0	0	0	523	566	
2	0	0	0	0	523	567	
3	0	0	0	0	523	566	
4	0	0	0	0	524	566	
5	0	0	0	0	525	566	
6	0	0	0	0	526	566	
7	0	0	0	0	528	566	
8	0	0	0	0	529	566	
9	0	0	0	0	529	566	
10	0	0	0	0	530	566	
11	0	0	0	0	531	566	
12	0	0	0	0	531	566	
13	0	0	0	0	531	566	
14	0	0	0	0	530	566	
15	0	0	0	0	529	566	
0	0	0	0	0	529	566	
1	0	0	0	0	529	566	
2	0	0	0	0	530	566	
3	0	0	0	0	529	566	
4	0	0	0	0	528	566	
5	0	0	0	0	529	566	
6	0	0	0	0	528	566	
7	0	0	0	0	529	566	
8	0	0	0	0	529	566	
9	0	0	0	0	531	566	
10	0	0	0	0	532	566	
11	0	0	0	0	533	566	
12	0	0	0	0	534	566	
13	0	0	0	0	533	566	
14	0	0	0	0	533	566	
15	0	0	0	0	534	566	
0	0	0	0	0	534	566	
1	0	0	0	0	533	566	
2	0	0	0	0	530	566	
3	0	0	0	0	529	566	
4	0	0	0	0	528	566	
5	0	0	0	0	527	566	
6	0	0	0	0	527	566	
7	0	0	0	0	526	566	
8	0	0	0	0	525	566	
9	0	0	0	0	527	566	
10	0	0	0	0	529	566	
11	0	0	0	0	531	566	
12	0	0	0	0	532	566	
13	0	0	0	0	533	566	
14	0	0	0	0	536	566	
15	0	0	0	0	538	566	
0	0	0	0	0	540	566	
1	0	0	0	0	540	566	
2	0	0	0	0	540	566	
3	0	0	0	0	539	566	
4	0	0	0	0	539	566	
5	0	0	0	0	539	566	
6	0	0	0	0	540	566	
7	0	0	0	0	542	566	
8	0	0	0	0	542	566	
9	0	0	0	0	541	566	
10	0	0	0	0	540	566	
11	0	0	0	0	540	566	
12	0	0	0	0	540	566	
13	0	0	0	0	540	566	
14	0	0	0	0	540	566	
15	0	0	0	0	539	566	
0	0	0	0	0	539	566	
1	0	0	0	0	539	566	
2	0	0	0	0	540	566	
3	0	0	0	0	542	566	
4	0	0	0	0	543	566	
5	0	0	0	0	543	566	
6	0	0	0	0	543	566	
7	0	0	0	0	544	566	
8	0	0	0	0	545	566	
9	0	0	0	0	547	566	
10	0	0	0	0	548	566	
11	0	0	0	0	551	566	
12	0	0	0	0	551	566	
13	0	0	0	0	552	566	
14	0	0	0	0	554	566	
15	0	0	0	0	554	566	
0	0	0	0	0	553	566	
1	0	0	0	0	553	566	
2	0	0	0	0	552	566	
3	0	0	0	0	552	566	
4	0	0	0	0	552	566	
5	0	0	0	0	553	566	
6	0	0	0	0	556	566	
7	0	0	0	0	558	566	
8	0	0	0	0	560	566	
9	0	0	0	0	561	566	
10	0	0	0	0	563	566	
11	0	0	0	0	563	566	
12	0	0	0	0	565	566	
13	0	0	0	0	566	566	
14	0	0	0	0	567	566	
15	0	0	0	0	567	566	
0	0	0	0	0	567	566	
1	0	0	0	0	567	566	
2	0	0	0	0	566	566	
3	0	0	0	0	564	566	
4	0	0	0	0	564	566	
5	0	0	0	0	563	566	
6	0	0	0	0	561	566	
7	0	0	0	0	560	566	
8	0	0	0	0	558	566	
9	0	0	0	0	553	566	
10	0	0	0	0	546	566	
11	0	0	0	0	543	566	
12	0	0	0	0	542	566	
13	0	0	0	0	544	566	
14	0	0	0	0	546	566	
15	0	0	0	0	547	566	
0	0	0	0	0	546	566	
1	0	0	0	0	545	566	
2	0	0	0	0	543	566	
3	0	0	0	0	538	566	
4	0	0	0	0	534	566	
5	0	0	0	0	529	566	
6	0	0	0	0	526	566	
7	0	0	0	0	521	566	
8	0	0	0	0	517	566	
9	0	0	0	0	513	566	
10	0	0	0	0	508	566	
11	0	0	0	0	504	566	
12	0	0	0	0	501	566	
13	0	0	0	0	499	566	
14	0	0	0	0	497	566	
15	0	0	0	0	495	566	
0	0	0	0	0	493	566	
1	0	0	0	0	492	566	
2	0	0	0	0	491	566	
3	0	0	0	0	490	566	
4	0	0	0	0	491	566	
5	0	0	0	0	492	566	
6	0	0	0	0	492	566	
7	0	0	0	0	492	566	
8	0	0	0	0	492	566	
9	0	0	0	0	490	566	
10	0	0	0	0	490	566	
11	0	0	0	0	491	565	
12	0	0	0	0	489	566	
13	0	0	0	0	487	566	
14	0	0	0	0	487	566	
15	0	0	0	0	487	566	
0	0	0	0	0	487	566	
1	0	0	0	0	490	566	
2	0	0	0	0	492	566	
3	0	0	0	0	493	566	
4	0	0	0	0	494	566	
5	0	0	0	0	495	566	
6	0	0	0	0	496	565	
7	0	0	0	0	495	566	
8	0	0	0	0	494	566	
9	0	0	0	0	493	566	
10	0	0	0	0	492	566	
11	0	0	0	0	492	566	
12	0	0	0	0	492	566	
13	0	0	0	0	494	566	
14	0	0	0	0	494	565	
15	0	0	0	0	496	565	
0	0	0	0	0	498	566	
1	0	0	0	0	500	566	
2	0	0	0	0	504	566	
3	0	0	0	0	505	566	
4	0	0	0	0	505	565	
5	0	0	0	0	508	566	
6	0	0	0	0	509	565	
7	0	0	0	0	506	566	
8	0	0	0	0	504	566	
9	0	0	0	0	504	566	
10	0	0	0	0	505	566	
11	0	0	0	0	504	565	
12	0	0	0	0	502	566	
13	0	0	0	0	497	566	
14	0	0	0	0	489	565	
15	0	0	0	0	481	566	
0	0	0	0	0	478	565	
1	0	0	0	0	480	566	
2	0	0	0	0	483	565	
3	0	0	0	0	489	566	
4	0	0	0	0	492	565	
5	0	0	0	0	494	566	
6	0	0	0	0	495	565	
7	0	0	0	0	495	566	
8	0	0	0	0	495	566	
9	0	0	0	0	493	566	
10	0	0	0	0	492	566	
11	0	0	0	0	493	565	
12	0	0	0	0	497	566	
13	0	0	0	0	507	565	
14	0	0	0	0	520	565	
15	0	0	0	0	536	565	
0	0	0	0	0	558	565	
1	0	0	0	0	579	566	
2	0	0	0	0	600	565	
3	0	0	0	0	624	565	
4	0	0	0	0	642	565	
5	0	0	0	0	665	565	
6	0	0	0	0	689	566	
7	0	0	0	0	710	565	
8	0	0	0	0	729	565	
9	0	0	0	0	748	565	
10	0	0	0	0	768	565	
11	0	0	0	0	786	565	
12	0	0	0	0	800	565	
13	0	0	0	0	811	566	
14	0	0	0	0	816	565	
15	0	0	0	0	817	565	
0	0	0	0	0	816	565	
1	0	0	0	0	811	565	
2	0	0	0	0	802	565	
3	0	0	0	0	782	565	
4	0	0	0	0	755	565	
5	0	0	0	0	724	565	
6	0	0	0	0	692	565	
7	0	0	0	0	658	565	
8	0	0	0	0	624	565	
9	0	0	0	0	591	565	
10	0	0	0	0	563	565	
11	0	0	0	0	536	565	
12	0	0	0	0	508	565	
13	0	0	0	0	480	565	
14	0	0	0	0	456	565	
15	0	0	0	0	435	565	
0	0	0	0	0	415	565	
1	0	0	0	0	399	565	
2	0	0	0	0	391	565	
3	0	0	0	0	385	565	
4	0	0	0	0	381	565	
5	0	0	0	0	382	565	
6	0	0	0	0	382	565	
7	0	0	0	0	382	565	
8	0	0	0	0	382	565	
9	0	0	0	0	380	565	
10	0	0	0	0	379	565	
11	0	0	0	0	377	565	
12	0	0	0	0	379	565	
13	0	0	0	0	380	565	
14	0	0	0	0	383	565	
15	0	0	0	0	387	565	
0	0	0	0	0	391	565	
1	0	0	0	0	395	565	
2	0	0	0	0	401	565	
3	0	0	0	0	407	565	
4	0	0	0	0	412	565	
5	0	0	0	0	418	565	
6	0	0	0	0	425	565	
7	0	0	0	0	431	565	
8	0	0	0	0	435	565	
9	0	0	0	0	440	565	
10	0	0	0	0	446	565	
11	0	0	0	0	451	565	
12	0	0	0	0	455	565	
13	0	0	0	0	456	565	
14	0	0	0	0	459	565	
15	0	0	0	0	461	565	
0	0	0	0	0	462	565	
1	0	0	0	0	462	565	
2	0	0	0	0	462	565	
3	0	0	0	0	462	565	
4	0	0	0	0	463	565	
5	0	0	0	0	464	565	
6	0	0	0	0	467	565	
7	0	0	0	0	468	565	
8	0	0	0	0	469	565	
9	0	0	0	0	470	565	
10	0	0	0	0	470	565	
11	0	0	0	0	471	565	
12	0	0	0	0	472	565	
13	0	0	0	0	472	565	
14	0	0	0	0	471	565	
15	0	0	0	0	471	565	
0	0	0	0	0	471	565	
1	0	0	0	0	471	565	
2	0	0	0	0	472	565	
3	0	0	0	0	474	565	
4	0	0	0	0	475	565	
5	0	0	0	0	474	565	
6	0	0	0	0	473	565	
7	0	0	0	0	472	564	
8	0	0	0	0	472	565	
9	0	0	0	0	475	565	
10	0	0	0	0	477	565	
11	0	0	0	0	478	565	
12	0	0	0	0	480	564	
13	0	0	0	0	479	565	
14	0	0	0	0	477	565	
15	0	0	0	0	477	565	
0	0	0	0	0	475	565	
1	0	0	0	0	475	564	
2	0	0	0	0	475	564	
3	0	0	0	0	474	565	
4	0	0	0	0	475	564	
5	0	0	0	0	476	565	
6	0	0	0	0	477	564	
7	0	0	0	0	479	564	
8	0	0	0	0	481	565	
9	0	0	0	0	487	564	
10	0	0	0	0	490	565	
11	0	0	0	0	492	565	
12	0	0	0	0	491	564	
13	0	0	0	0	489	565	
14	0	0	0	0	487	565	
15	0	0	0	0	484	565	
0	0	0	0	0	481	564	
1	0	0	0	0	480	565	
2	0	0	0	0	480	565	
3	0	0	0	0	480	564	
4	0	0	0	0	479	565	
5	0	0	0	0	482	564	
6	0	0	0	0	484	564	
7	0	0	0	0	486	564	
8	0	0	0	0	489	565	
9	0	0	0	0	492	564	
10	0	0	0	0	492	565	
11	0	0	0	0	492	564	
12	0	0	0	0	492	564	
13	0	0	0	0	493	564	
14	0	0	0	0	495	564	
15	0	0	0	0	495	564	
0	0	0	0	0	494	564	
1	0	0	0	0	494	564	
2	0	0	0	0	495	564	
3	0	0	0	0	495	564	
4	0	0	0	0	496	564	
5	0	0	0	0	495	565	
6	0	0	0	0	495	564	
7	0	0	0	0	496	564	
8	0	0	0	0	496	564	
9	0	0	0	0	498	564	
10	0	0	0	0	499	564	
11	0	0	0	0	500	564	
12	0	0	0	0	502	564	
13	0	0	0	0	501	564	
14	0	0	0	0	501	564	
15	0	0	0	0	502	564	
0	0	0	0	0	500	564	
1	0	0	0	0	499	564	
2	0	0	0	0	498	564	
3	0	0	0	0	498	564	
4	0	0	0	0	500	564	
5	0	0	0	0	502	564	
6	0	0	0	0	504	564	
7	0	0	0	0	506	564	
8	0	0	0	0	507	564	
9	0	0	0	0	510	564	
10	0	0	0	0	510	564	
11	0	0	0	0	510	564	
12	0	0	0	0	512	564	
13	0	0	0	0	513	564	
14	0	0	0	0	511	564	
15	0	0	0	0	510	564	
0	0	0	0	0	509	564	
1	0	0	0	0	509	564	
2	0	0	0	0	510	564	
3	0	0	0	0	511	564	
4	0	0	0	0	511	564	
5	0	0	0	0	512	564	
6	0	0	0	0	513	564	
7	0	0	0	0	514	564	
8	0	0	0	0	515	564	
9	0	0	0	0	516	564	
10	0	0	0	0	518	564	
11	0	0	0	0	519	564	
12	0	0	0	0	520	564	
13	0	0	0	0	523	564	
14	0	0	0	0	524	564	
15	0	0	0	0	525	564	
0	0	0	0	0	526	564	
1	0	0	0	0	527	564	
2	0	0	0	0	527	564	
3	0	0	0	0	527	564	
4	0	0	0	0	527	564	
5	0	0	0	0	527	564	
6	0	0	0	0	529	564	
7	0	0	0	0	529	564	
8	0	0	0	0	529	564	
9	0	0	0	0	529	564	
10	0	0	0	0	530	564	
11	0	0	0	0	531	564	
12	0	0	0	0	532	564	
13	0	0	0	0	533	564	
14	0	0	0	0	536	564	
15	0	0	0	0	536	564	
0	0	0	0	0	537	564	
1	0	0	0	0	537	564	
2	0	0	0	0	539	564	
3	0	0	0	0	541	564	
4	0	0	0	0	541	564	
5	0	0	0	0	543	564	
6	0	0	0	0	542	564	
7	0	0	0	0	541	564	
8	0	0	0	0	540	564	
9	0	0	0	0	541	564	
10	0	0	0	0	543	564	
11	0	0	0	0	543	564	
12	0	0	0	0	544	564	
13	0	0	0	0	547	564	
14	0	0	0	0	549	564	
15	0	0	0	0	549	564	
0	0	0	0	0	548	564	
1	0	0	0	0	547	564	
2	0	0	0	0	546	564	
3	0	0	0	0	547	564	
4	0	0	0	0	545	564	
5	0	0	0	0	545	564	
6	0	0	0	0	544	564	
7	0	0	0	0	545	564	
8	0	0	0	0	544	564	
9	0	0	0	0	543	564	
10	0	0	0	0	542	564	
11	0	0	0	0	542	564	
12	0	0	0	0	543	564	
13	0	0	0	0	545	564	
14	0	0	0	0	546	564	
15	0	0	0	0	547	564	
0	0	0	0	0	548	564	
1	0	0	0	0	549	564	
2	0	0	0	0	549	564	
3	0	0	0	0	548	564	
4	0	0	0	0	547	564	
5	0	0	0	0	547	564	
6	0	0	0	0	547	564	
7	0	0	0	0	547	564	
8	0	0	0	0	547	564	
9	0	0	0	0	548	564	
10	0	0	0	0	548	564	
11	0	0	0	0	550	564	
12	0	0	0	0	553	564	
13	0	0	0	0	553	564	
14	0	0	0	0	553	564	
15	0	0	0	0	553	564	
0	0	0	0	0	555	564	
1	0	0	0	0	555	564	
2	0	0	0	0	553	564	
3	0	0	0	0	549	564	
4	0	0	0	0	547	564	
5	0	0	0	0	547	564	
6	0	0	0	0	545	564	
7	0	0	0	0	543	564	
8	0	0	0	0	546	564	
9	0	0	0	0	547	564	
10	0	0	0	0	547	564	
11	0	0	0	0	549	564	
12	0	0	0	0	549	564	
13	0	0	0	0	549	564	
14	0	0	0	0	547	564	
15	0	0	0	0	544	564	
0	0	0	0	0	540	564	
1	0	0	0	0	539	564	
2	0	0	0	0	539	564	
3	0	0	0	0	537	564	
4	0	0	0	0	538	564	
5	0	0	0	0	536	564	
6	0	0	0	0	535	564	
7	0	0	0	0	534	564	
8	0	0	0	0	532	564	
9	0	0	0	0	531	564	
10	0	0	0	0	529	564	
11	0	0	0	0	529	564	
12	0	0	0	0	530	564	
13	0	0	0	0	529	564	
14	0	0	0	0	529	564	
15	0	0	0	0	529	564	
0	0	0	0	0	531	564	
1	0	0	0	0	532	564	
2	0	0	0	0	534	564	
3	0	0	0	0	534	564	
4	0	0	0	0	533	564	
5	0	0	0	0	531	564	
6	0	0	0	0	530	564	
7	0	0	0	0	526	564	
8	0	0	0	0	523	564	
9	0	0	0	0	521	564	
10	0	0	0	0	519	564	
11	0	0	0	0	518	564	
12	0	0	0	0	518	564	
13	0	0	0	0	516	564	
14	0	0	0	0	516	564	
15	0	0	0	0	517	564	
0	0	0	0	0	518	564	
1	0	0	0	0	518	564	
2	0	0	0	0	518	564	
3	0	0	0	0	518	564	
4	0	0	0	0	516	564	
5	0	0	0	0	515	564	
6	0	0	0	0	515	564	
7	0	0	0	0	514	564	
8	0	0	0	0	513	564	
9	0	0	0	0	514	564	
10	0	0	0	0	514	564	
11	0	0	0	0	514	564	
12	0	0	0	0	513	564	
13	0	0	0	0	512	564	
14	0	0	0	0	511	564	
15	0	0	0	0	511	564	
0	0	0	0	0	511	564	
1	0	0	0	0	510	564	
2	0	0	0	0	508	564	
3	0	0	0	0	507	564	
4	0	0	0	0	504	564	
5	0	0	0	0	501	564	
6	0	0	0	0	498	564	
7	0	0	0	0	495	564	
8	0	0	0	0	494	564	
9	0	0	0	0	493	564	
10	0	0	0	0	493	564	
11	0	0	0	0	492	564	
12	0	0	0	0	492	564	
13	0	0	0	0	492	564	
14	0	0	0	0	493	564	
15	0	0	0	0	494	564	
0	0	0	0	0	496	564	
1	0	0	0	0	496	564	
2	0	0	0	0	495	564	
3	0	0	0	0	494	564	
4	0	0	0	0	496	564	
5	0	0	0	0	495	564	
6	0	0	0	0	495	564	
7	0	0	0	0	494	564	
8	0	0	0	0	492	564	
9	0	0	0	0	490	564	
10	0	0	0	0	489	564	
11	0	0	0	0	488	564	
12	0	0	0	0	487	564	
13	0	0	0	0	487	564	
14	0	0	0	0	487	564	
15	0	0	0	0	488	564	
0	0	0	0	0	489	564	
1	0	0	0	0	488	564	
2	0	0	0	0	489	564	
3	0	0	0	0	489	564	
4	0	0	0	0	491	564	
5	0	0	0	0	491	564	
6	0	0	0	0	491	564	
7	0	0	0	0	490	564	
8	0	0	0	0	490	564	
9	0	0	0	0	488	564	
10	0	0	0	0	488	564	
11	0	0	0	0	488	564	
12	0	0	0	0	487	564	
13	0	0	0	0	488	564	
14	0	0	0	0	488	564	
15	0	0	0	0	491	564	
0	0	0	0	0	494	564	
1	0	0	0	0	495	564	
2	0	0	0	0	496	564	
3	0	0	0	0	499	564	
4	0	0	0	0	500	564	
5	0	0	0	0	498	564	
6	0	0	0	0	497	564	
7	0	0	0	0	496	564	
8	0	0	0	0	497	564	
9	0	0	0	0	497	564	
10	0	0	0	0	495	564	
11	0	0	0	0	496	564	
12	0	0	0	0	497	564	
13	0	0	0	0	498	564	
14	0	0	0	0	498	564	
15	0	0	0	0	499	564	
0	0	0	0	0	500	564	
1	0	0	0	0	502	564	
2	0	0	0	0	503	564	
3	0	0	0	0	505	564	
4	0	0	0	0	507	564	
5	0	0	0	0	508	564	
6	0	0	0	0	509	564	
7	0	0	0	0	509	564	
8	0	0	0	0	509	564	
9	0	0	0	0	511	564	
10	0	0	0	0	509	564	
11	0	0	0	0	508	564	
12	0	0	0	0	507	564	
13	0	0	0	0	507	564	
14	0	0	0	0	507	564	
15	0	0	0	0	509	564	
0	0	0	0	0	510	564	
1	0	0	0	0	511	564	
2	0	0	0	0	512	564	
3	0	0	0	0	514	564	
4	0	0	0	0	515	564	
5	0	0	0	0	517	564	
6	0	0	0	0	519	564	
7	0	0	0	0	520	564	
8	0	0	0	0	520	564	
9	0	0	0	0	519	564	
10	0	0	0	0	518	564	
11	0	0	0	0	518	564	
12	0	0	0	0	517	564	
13	0	0	0	0	515	564	
14	0	0	0	0	517	564	
15	0	0	0	0	517	564	
0	0	0	0	0	517	564	
1	0	0	0	0	517	564	
2	0	0	0	0	519	564	
3	0	0	0	0	521	564	
4	0	0	0	0	522	564	
5	0	0	0	0	524	564	
6	0	0	0	0	525	564	
7	0	0	0	0	525	564	
8	0	0	0	0	526	564	
9	0	0	0	0	527	564	
10	0	0	0	0	527	564	
11	0	0	0	0	528	564	
12	0	0	0	0	528	564	
13	0	0	0	0	528	564	
14	0	0	0	0	527	564	
15	0	0	0	0	527	564	
0	0	0	0	0	526	564	
1	0	0	0	0	527	564	
2	0	0	0	0	529	564	
3	0	0	0	0	531	564	
4	0	0	0	0	531	564	
5	0	0	0	0	532	564	
6	0	0	0	0	531	564	
7	0	0	0	0	532	564	
8	0	0	0	0	532	564	
9	0	0	0	0	534	564	
10	0	0	0	0	534	564	
11	0	0	0	0	533	564	
12	0	0	0	0	532	564	
13	0	0	0	0	531	564	
14	0	0	0	0	530	564	
15	0	0	0	0	527	564	
0	0	0	0	0	526	564	
1	0	0	0	0	525	564	
2	0	0	0	0	525	564	
3	0	0	0	0	526	564	
4	0	0	0	0	526	564	
5	0	0	0	0	527	564	
6	0	0	0	0	528	564	
7	0	0	0	0	528	564	
8	0	0	0	0	527	564	
9	0	0	0	0	527	564	
10	0	0	0	0	527	564	
11	0	0	0	0	527	564	
12	0	0	0	0	526	564	
13	0	0	0	0	526	564	
14	0	0	0	0	525	564	
15	0	0	0	0	525	564	
0	0	0	0	0	526	564	
1	0	0	0	0	527	564	
2	0	0	0	0	528	564	
3	0	0	0	0	530	564	
4	0	0	0	0	531	564	
5	0	0	0	0	532	564	
6	0	0	0	0	531	564	
7	0	0	0	0	530	564	
8	0	0	0	0	530	564	
9	0	0	0	0	530	564	
10	0	0	0	0	531	564	
11	0	0	0	0	531	564	
12	0	0	0	0	530	564	
13	0	0	0	0	530	565	
14	0	0	0	0	529	564	
15	0	0	0	0	529	564	
0	0	0	0	0	528	564	
1	0	0	0	0	527	564	
2	0	0	0	0	527	564	
3	0	0	0	0	526	564	
4	0	0	0	0	527	564	
5	0	0	0	0	528	564	
6	0	0	0	0	529	564	
7	0	0	0	0	530	564	
8	0	0	0	0	529	564	
9	0	0	0	0	529	564	
10	0	0	0	0	528	564	
11	0	0	0	0	528	564	
12	0	0	0	0	528	564	
13	0	0	0	0	528	564	
14	0	0	0	0	527	564	
15	0	0	0	0	525	564	
0	0	0	0	0	525	564	
1	0	0	0	0	526	564	
2	0	0	0	0	526	564	
3	0	0	0	0	528	564	
4	0	0	0	0	528	564	
5	0	0	0	0	529	564	
6	0	0	0	0	531	564	
7	0	0	0	0	530	564	
8	0	0	0	0	531	564	
9	0	0	0	0	531	564	
10	0	0	0	0	531	565	
11	0	0	0	0	531	564	
12	0	0	0	0	531	564	
13	0	0	0	0	531	564	
14	0	0	0	0	532	564	
15	0	0	0	0	532	564	
0	0	0	0	0	532	564	
1	0	0	0	0	529	564	
2	0	0	0	0	527	564	
3	0	0	0	0	526	565	
