# OpenSignals Text File Format. Version 1
# {"98:D3:71:FE:37:4F": {"position": 0, "device": "bitalino_rev", "device name": "98:D3:71:FE:37:4F", "device connection": "BTH98:D3:71:FE:37:4F", "sampling rate": 1000, "resolution": [4, 1, 1, 1, 1, 10, 10], "firmware version": 1282, "comments": "", "keywords": "", "mode": 0, "sync interval": 2, "date": "2026-6-12", "time": "15:13:23.531", "channels": [1, 2], "sensor": ["ECGBIT", "EDABITREV"], "label": ["A1", "A2"], "column": ["nSeq", "I1", "I2", "O1", "O2", "A1", "A2"], "special": [{}, {}], "digital IO": [0, 0, 1, 1]}}
# EndOfHeader
0	0	0	0	0	510	490	
1	0	0	0	0	509	489	
2	0	0	0	0	508	489	
3	0	0	0	0	508	490	
4	0	0	0	0	508	490	
5	0	0	0	0	509	489	
6	0	0	0	0	509	490	
7	0	0	0	0	510	490	
8	0	0	0	0	510	489	
9	0	0	0	0	511	490	
10	0	0	0	0	511	490	
11	0	0	0	0	511	490	
12	0	0	0	0	510	490	
13	0	0	0	0	510	489	
14	0	0	0	0	510	490	
15	0	0	0	0	510	490	
0	0	0	0	0	510	490	
1	0	0	0	0	511	490	
2	0	0	0	0	511	489	
3	0	0	0	0	511	490	
4	0	0	0	0	511	489	
5	0	0	0	0	511	490	
6	0	0	0	0	512	489	
7	0	0	0	0	512	490	
8	0	0	0	0	512	490	
9	0	0	0	0	511	490	
10	0	0	0	0	512	489	
11	0	0	0	0	512	489	
12	0	0	0	0	511	489	
13	0	0	0	0	511	490	
14	0	0	0	0	510	489	
15	0	0	0	0	509	490	
0	0	0	0	0	509	490	
1	0	0	0	0	509	490	
2	0	0	0	0	510	490	
3	0	0	0	0	510	489	
4	0	0	0	0	509	490	
5	0	0	0	0	508	489	
6	0	0	0	0	509	489	
7	0	0	0	0	509	490	
8	0	0	0	0	509	489	
9	0	0	0	0	508	489	
10	0	0	0	0	507	490	
11	0	0	0	0	506	490	
12	0	0	0	0	506	490	
13	0	0	0	0	506	489	
14	0	0	0	0	507	489	
15	0	0	0	0	507	489	
0	0	0	0	0	507	489	
1	0	0	0	0	505	489	
2	0	0	0	0	505	490	
3	0	0	0	0	506	490	
4	0	0	0	0	506	489	
5	0	0	0	0	506	489	
6	0	0	0	0	506	490	
7	0	0	0	0	508	489	
8	0	0	0	0	509	489	
9	0	0	0	0	509	489	
10	0	0	0	0	509	489	
11	0	0	0	0	509	490	
12	0	0	0	0	507	489	
13	0	0	0	0	507	489	
14	0	0	0	0	507	490	
15	0	0	0	0	506	489	
0	0	0	0	0	505	489	
1	0	0	0	0	505	490	
2	0	0	0	0	504	489	
3	0	0	0	0	504	489	
4	0	0	0	0	504	489	
5	0	0	0	0	504	489	
6	0	0	0	0	505	489	
7	0	0	0	0	506	489	
8	0	0	0	0	507	489	
9	0	0	0	0	506	489	
10	0	0	0	0	509	490	
11	0	0	0	0	508	490	
12	0	0	0	0	509	489	
13	0	0	0	0	510	489	
14	0	0	0	0	509	489	
15	0	0	0	0	509	489	
0	0	0	0	0	509	489	
1	0	0	0	0	509	489	
2	0	0	0	0	509	489	
3	0	0	0	0	508	489	
4	0	0	0	0	508	490	
5	0	0	0	0	508	490	
6	0	0	0	0	508	489	
7	0	0	0	0	507	489	
8	0	0	0	0	506	489	
9	0	0	0	0	506	489	
10	0	0	0	0	507	490	
11	0	0	0	0	508	489	
12	0	0	0	0	507	489	
13	0	0	0	0	507	489	
14	0	0	0	0	507	489	
15	0	0	0	0	507	489	
0	0	0	0	0	508	489	
1	0	0	0	0	507	489	
2	0	0	0	0	505	489	
3	0	0	0	0	505	489	
4	0	0	0	0	505	489	
5	0	0	0	0	505	489	
6	0	0	0	0	504	489	
7	0	0	0	0	504	489	
8	0	0	0	0	504	490	
9	0	0	0	0	505	490	
10	0	0	0	0	506	489	
11	0	0	0	0	508	489	
12	0	0	0	0	509	489	
13	0	0	0	0	510	489	
14	0	0	0	0	510	489	
15	0	0	0	0	509	489	
0	0	0	0	0	507	489	
1	0	0	0	0	507	489	
2	0	0	0	0	507	490	
3	0	0	0	0	507	489	
4	0	0	0	0	505	489	
5	0	0	0	0	505	489	
6	0	0	0	0	506	489	
7	0	0	0	0	506	489	
8	0	0	0	0	507	489	
9	0	0	0	0	508	489	
10	0	0	0	0	508	489	
11	0	0	0	0	508	489	
12	0	0	0	0	508	490	
13	0	0	0	0	508	489	
14	0	0	0	0	509	489	
15	0	0	0	0	510	489	
0	0	0	0	0	510	489	
1	0	0	0	0	511	490	
2	0	0	0	0	511	489	
3	0	0	0	0	510	489	
4	0	0	0	0	509	489	
5	0	0	0	0	509	489	
6	0	0	0	0	508	489	
7	0	0	0	0	508	489	
8	0	0	0	0	509	490	
9	0	0	0	0	510	489	
10	0	0	0	0	510	489	
11	0	0	0	0	512	490	
12	0	0	0	0	511	489	
13	0	0	0	0	512	489	
14	0	0	0	0	512	489	
15	0	0	0	0	512	489	
0	0	0	0	0	511	489	
1	0	0	0	0	510	489	
2	0	0	0	0	510	489	
3	0	0	0	0	510	489	
4	0	0	0	0	511	489	
5	0	0	0	0	512	490	
6	0	0	0	0	512	489	
7	0	0	0	0	512	489	
8	0	0	0	0	513	489	
9	0	0	0	0	513	489	
10	0	0	0	0	513	489	
11	0	0	0	0	512	489	
12	0	0	0	0	512	489	
13	0	0	0	0	511	489	
14	0	0	0	0	511	489	
15	0	0	0	0	510	489	
0	0	0	0	0	508	489	
1	0	0	0	0	508	489	
2	0	0	0	0	508	489	
3	0	0	0	0	508	489	
4	0	0	0	0	508	489	
5	0	0	0	0	508	490	
6	0	0	0	0	508	490	
7	0	0	0	0	507	489	
8	0	0	0	0	508	489	
9	0	0	0	0	509	489	
10	0	0	0	0	510	489	
11	0	0	0	0	512	489	
12	0	0	0	0	512	489	
13	0	0	0	0	514	489	
14	0	0	0	0	514	490	
15	0	0	0	0	514	489	
0	0	0	0	0	513	489	
1	0	0	0	0	513	489	
2	0	0	0	0	512	489	
3	0	0	0	0	513	489	
4	0	0	0	0	513	489	
5	0	0	0	0	512	489	
6	0	0	0	0	513	489	
7	0	0	0	0	513	489	
8	0	0	0	0	512	489	
9	0	0	0	0	512	489	
10	0	0	0	0	513	489	
11	0	0	0	0	513	489	
12	0	0	0	0	513	489	
13	0	0	0	0	513	490	
14	0	0	0	0	514	489	
15	0	0	0	0	514	489	
0	0	0	0	0	513	489	
1	0	0	0	0	512	489	
2	0	0	0	0	512	489	
3	0	0	0	0	513	489	
4	0	0	0	0	514	489	
5	0	0	0	0	515	489	
6	0	0	0	0	516	489	
7	0	0	0	0	517	489	
8	0	0	0	0	517	489	
9	0	0	0	0	517	489	
10	0	0	0	0	518	489	
11	0	0	0	0	520	489	
12	0	0	0	0	521	489	
13	0	0	0	0	522	489	
14	0	0	0	0	523	489	
15	0	0	0	0	524	489	
0	0	0	0	0	525	489	
1	0	0	0	0	526	489	
2	0	0	0	0	527	489	
3	0	0	0	0	527	489	
4	0	0	0	0	529	489	
5	0	0	0	0	529	489	
6	0	0	0	0	529	489	
7	0	0	0	0	530	489	
8	0	0	0	0	530	489	
9	0	0	0	0	531	489	
10	0	0	0	0	531	489	
11	0	0	0	0	533	490	
12	0	0	0	0	533	489	
13	0	0	0	0	533	489	
14	0	0	0	0	533	489	
15	0	0	0	0	533	489	
0	0	0	0	0	533	489	
1	0	0	0	0	533	489	
2	0	0	0	0	534	489	
3	0	0	0	0	534	489	
4	0	0	0	0	534	489	
5	0	0	0	0	533	489	
6	0	0	0	0	531	489	
7	0	0	0	0	530	489	
8	0	0	0	0	529	489	
9	0	0	0	0	530	489	
10	0	0	0	0	532	489	
11	0	0	0	0	534	489	
12	0	0	0	0	536	489	
13	0	0	0	0	539	489	
14	0	0	0	0	541	489	
15	0	0	0	0	543	489	
0	0	0	0	0	543	489	
1	0	0	0	0	544	489	
2	0	0	0	0	545	489	
3	0	0	0	0	546	489	
4	0	0	0	0	547	490	
5	0	0	0	0	546	489	
6	0	0	0	0	545	489	
7	0	0	0	0	545	489	
8	0	0	0	0	544	489	
9	0	0	0	0	543	490	
10	0	0	0	0	542	489	
11	0	0	0	0	540	489	
12	0	0	0	0	538	489	
13	0	0	0	0	537	489	
14	0	0	0	0	536	489	
15	0	0	0	0	534	489	
0	0	0	0	0	533	489	
1	0	0	0	0	532	489	
2	0	0	0	0	531	489	
3	0	0	0	0	529	489	
4	0	0	0	0	528	489	
5	0	0	0	0	527	489	
6	0	0	0	0	527	489	
7	0	0	0	0	527	489	
8	0	0	0	0	525	489	
9	0	0	0	0	523	489	
10	0	0	0	0	520	489	
11	0	0	0	0	518	489	
12	0	0	0	0	515	489	
13	0	0	0	0	512	489	
14	0	0	0	0	508	489	
15	0	0	0	0	505	489	
0	0	0	0	0	502	489	
1	0	0	0	0	497	489	
2	0	0	0	0	496	489	
3	0	0	0	0	493	489	
4	0	0	0	0	490	489	
5	0	0	0	0	487	489	
6	0	0	0	0	486	489	
7	0	0	0	0	488	490	
8	0	0	0	0	488	489	
9	0	0	0	0	484	489	
10	0	0	0	0	482	489	
11	0	0	0	0	481	489	
12	0	0	0	0	480	489	
13	0	0	0	0	480	489	
14	0	0	0	0	479	489	
15	0	0	0	0	479	489	
0	0	0	0	0	479	489	
1	0	0	0	0	478	489	
2	0	0	0	0	479	489	
3	0	0	0	0	481	489	
4	0	0	0	0	482	489	
5	0	0	0	0	483	489	
6	0	0	0	0	483	489	
7	0	0	0	0	484	489	
8	0	0	0	0	484	489	
9	0	0	0	0	487	489	
10	0	0	0	0	489	489	
11	0	0	0	0	490	489	
12	0	0	0	0	489	489	
13	0	0	0	0	489	489	
14	0	0	0	0	489	489	
15	0	0	0	0	488	489	
0	0	0	0	0	488	489	
1	0	0	0	0	488	489	
2	0	0	0	0	488	489	
3	0	0	0	0	488	489	
4	0	0	0	0	488	489	
5	0	0	0	0	489	489	
6	0	0	0	0	490	489	
7	0	0	0	0	492	489	
8	0	0	0	0	490	489	
9	0	0	0	0	490	489	
10	0	0	0	0	491	489	
11	0	0	0	0	491	489	
12	0	0	0	0	491	489	
13	0	0	0	0	491	489	
14	0	0	0	0	489	489	
15	0	0	0	0	488	489	
0	0	0	0	0	487	489	
1	0	0	0	0	484	489	
2	0	0	0	0	480	489	
3	0	0	0	0	476	489	
4	0	0	0	0	471	489	
5	0	0	0	0	468	489	
6	0	0	0	0	467	489	
7	0	0	0	0	467	489	
8	0	0	0	0	468	489	
9	0	0	0	0	471	489	
10	0	0	0	0	474	489	
11	0	0	0	0	478	489	
12	0	0	0	0	484	489	
13	0	0	0	0	490	489	
14	0	0	0	0	496	489	
15	0	0	0	0	503	489	
0	0	0	0	0	511	489	
1	0	0	0	0	522	489	
2	0	0	0	0	536	489	
3	0	0	0	0	550	489	
4	0	0	0	0	564	489	
5	0	0	0	0	581	489	
6	0	0	0	0	600	489	
7	0	0	0	0	620	489	
8	0	0	0	0	640	489	
9	0	0	0	0	662	489	
10	0	0	0	0	682	489	
11	0	0	0	0	702	489	
12	0	0	0	0	723	489	
13	0	0	0	0	744	489	
14	0	0	0	0	763	489	
15	0	0	0	0	782	489	
0	0	0	0	0	798	489	
1	0	0	0	0	809	489	
2	0	0	0	0	814	489	
3	0	0	0	0	816	489	
4	0	0	0	0	817	489	
5	0	0	0	0	812	489	
6	0	0	0	0	802	489	
7	0	0	0	0	781	489	
8	0	0	0	0	749	489	
9	0	0	0	0	716	489	
10	0	0	0	0	681	489	
11	0	0	0	0	646	489	
12	0	0	0	0	612	489	
13	0	0	0	0	579	489	
14	0	0	0	0	546	489	
15	0	0	0	0	515	489	
0	0	0	0	0	485	489	
1	0	0	0	0	459	489	
2	0	0	0	0	436	489	
3	0	0	0	0	419	489	
4	0	0	0	0	403	489	
5	0	0	0	0	389	489	
6	0	0	0	0	381	489	
7	0	0	0	0	376	489	
8	0	0	0	0	373	489	
9	0	0	0	0	373	489	
10	0	0	0	0	373	489	
11	0	0	0	0	373	489	
12	0	0	0	0	374	489	
13	0	0	0	0	377	489	
14	0	0	0	0	380	489	
15	0	0	0	0	383	489	
0	0	0	0	0	385	489	
1	0	0	0	0	389	489	
2	0	0	0	0	393	489	
3	0	0	0	0	398	489	
4	0	0	0	0	402	489	
5	0	0	0	0	405	489	
6	0	0	0	0	408	489	
7	0	0	0	0	411	489	
8	0	0	0	0	415	489	
9	0	0	0	0	420	489	
10	0	0	0	0	426	489	
11	0	0	0	0	432	489	
12	0	0	0	0	438	489	
13	0	0	0	0	443	489	
14	0	0	0	0	448	489	
15	0	0	0	0	453	489	
0	0	0	0	0	457	489	
1	0	0	0	0	458	489	
2	0	0	0	0	459	489	
3	0	0	0	0	459	489	
4	0	0	0	0	460	489	
5	0	0	0	0	462	489	
6	0	0	0	0	465	489	
7	0	0	0	0	468	489	
8	0	0	0	0	470	489	
9	0	0	0	0	470	489	
10	0	0	0	0	472	489	
11	0	0	0	0	473	489	
12	0	0	0	0	473	489	
13	0	0	0	0	474	489	
14	0	0	0	0	477	489	
15	0	0	0	0	479	489	
0	0	0	0	0	480	489	
1	0	0	0	0	480	489	
2	0	0	0	0	480	489	
3	0	0	0	0	481	489	
4	0	0	0	0	482	489	
5	0	0	0	0	482	489	
6	0	0	0	0	482	489	
7	0	0	0	0	483	489	
8	0	0	0	0	484	489	
9	0	0	0	0	485	489	
10	0	0	0	0	485	489	
11	0	0	0	0	485	489	
12	0	0	0	0	486	489	
13	0	0	0	0	486	489	
14	0	0	0	0	487	489	
15	0	0	0	0	489	489	
0	0	0	0	0	491	489	
1	0	0	0	0	491	489	
2	0	0	0	0	491	489	
3	0	0	0	0	492	489	
4	0	0	0	0	492	489	
5	0	0	0	0	493	489	
6	0	0	0	0	494	489	
7	0	0	0	0	495	489	
8	0	0	0	0	495	489	
9	0	0	0	0	495	489	
10	0	0	0	0	495	489	
11	0	0	0	0	495	489	
12	0	0	0	0	494	489	
13	0	0	0	0	495	489	
14	0	0	0	0	495	489	
15	0	0	0	0	496	489	
0	0	0	0	0	497	489	
1	0	0	0	0	498	489	
2	0	0	0	0	499	489	
3	0	0	0	0	499	489	
4	0	0	0	0	499	489	
5	0	0	0	0	499	489	
6	0	0	0	0	501	489	
7	0	0	0	0	502	489	
8	0	0	0	0	500	489	
9	0	0	0	0	500	489	
10	0	0	0	0	501	489	
11	0	0	0	0	501	489	
12	0	0	0	0	501	489	
13	0	0	0	0	500	489	
14	0	0	0	0	500	489	
15	0	0	0	0	500	489	
0	0	0	0	0	500	489	
1	0	0	0	0	499	489	
2	0	0	0	0	501	489	
3	0	0	0	0	502	489	
4	0	0	0	0	504	489	
5	0	0	0	0	505	489	
6	0	0	0	0	504	489	
7	0	0	0	0	504	489	
8	0	0	0	0	504	489	
9	0	0	0	0	503	489	
10	0	0	0	0	503	489	
11	0	0	0	0	503	489	
12	0	0	0	0	502	489	
13	0	0	0	0	502	489	
14	0	0	0	0	502	489	
15	0	0	0	0	502	489	
0	0	0	0	0	501	489	
1	0	0	0	0	502	489	
2	0	0	0	0	503	489	
3	0	0	0	0	502	489	
4	0	0	0	0	502	489	
5	0	0	0	0	501	489	
6	0	0	0	0	500	489	
7	0	0	0	0	499	489	
8	0	0	0	0	499	489	
9	0	0	0	0	500	489	
10	0	0	0	0	501	489	
11	0	0	0	0	503	489	
12	0	0	0	0	504	489	
13	0	0	0	0	505	489	
14	0	0	0	0	507	489	
15	0	0	0	0	507	489	
0	0	0	0	0	506	489	
1	0	0	0	0	505	489	
2	0	0	0	0	505	489	
3	0	0	0	0	505	489	
4	0	0	0	0	505	489	
5	0	0	0	0	504	489	
6	0	0	0	0	504	489	
7	0	0	0	0	504	489	
8	0	0	0	0	504	489	
9	0	0	0	0	504	489	
10	0	0	0	0	504	489	
11	0	0	0	0	505	489	
12	0	0	0	0	505	489	
13	0	0	0	0	504	489	
14	0	0	0	0	504	489	
15	0	0	0	0	504	489	
0	0	0	0	0	504	489	
1	0	0	0	0	504	489	
2	0	0	0	0	506	489	
3	0	0	0	0	508	489	
4	0	0	0	0	508	489	
5	0	0	0	0	506	489	
6	0	0	0	0	506	489	
7	0	0	0	0	505	489	
8	0	0	0	0	505	489	
9	0	0	0	0	505	489	
10	0	0	0	0	506	489	
11	0	0	0	0	507	489	
12	0	0	0	0	508	489	
13	0	0	0	0	509	489	
14	0	0	0	0	508	489	
15	0	0	0	0	509	489	
0	0	0	0	0	510	489	
1	0	0	0	0	510	489	
2	0	0	0	0	510	489	
3	0	0	0	0	510	489	
4	0	0	0	0	511	489	
5	0	0	0	0	512	489	
6	0	0	0	0	513	489	
7	0	0	0	0	513	489	
8	0	0	0	0	512	489	
9	0	0	0	0	511	489	
10	0	0	0	0	511	489	
11	0	0	0	0	511	489	
12	0	0	0	0	511	489	
13	0	0	0	0	511	489	
14	0	0	0	0	512	489	
15	0	0	0	0	512	489	
0	0	0	0	0	512	489	
1	0	0	0	0	511	489	
2	0	0	0	0	512	489	
3	0	0	0	0	511	489	
4	0	0	0	0	511	489	
5	0	0	0	0	512	489	
6	0	0	0	0	512	489	
7	0	0	0	0	512	489	
8	0	0	0	0	513	489	
9	0	0	0	0	513	489	
10	0	0	0	0	514	489	
11	0	0	0	0	514	489	
12	0	0	0	0	515	489	
13	0	0	0	0	516	489	
14	0	0	0	0	518	489	
15	0	0	0	0	519	489	
0	0	0	0	0	519	489	
1	0	0	0	0	519	489	
2	0	0	0	0	521	489	
3	0	0	0	0	521	489	
4	0	0	0	0	521	489	
5	0	0	0	0	522	489	
6	0	0	0	0	522	489	
7	0	0	0	0	522	489	
8	0	0	0	0	523	489	
9	0	0	0	0	523	489	
10	0	0	0	0	523	489	
11	0	0	0	0	523	489	
12	0	0	0	0	523	489	
13	0	0	0	0	524	489	
14	0	0	0	0	524	489	
15	0	0	0	0	523	489	
0	0	0	0	0	523	489	
1	0	0	0	0	524	489	
2	0	0	0	0	524	489	
3	0	0	0	0	524	489	
4	0	0	0	0	524	489	
5	0	0	0	0	525	489	
6	0	0	0	0	526	489	
7	0	0	0	0	527	489	
8	0	0	0	0	528	489	
9	0	0	0	0	529	489	
10	0	0	0	0	529	489	
11	0	0	0	0	529	489	
12	0	0	0	0	529	489	
13	0	0	0	0	529	489	
14	0	0	0	0	530	489	
15	0	0	0	0	530	489	
0	0	0	0	0	529	489	
1	0	0	0	0	528	489	
2	0	0	0	0	528	489	
3	0	0	0	0	528	489	
4	0	0	0	0	528	489	
5	0	0	0	0	530	489	
6	0	0	0	0	529	489	
7	0	0	0	0	530	489	
8	0	0	0	0	529	489	
9	0	0	0	0	528	489	
10	0	0	0	0	526	489	
11	0	0	0	0	526	489	
12	0	0	0	0	525	489	
13	0	0	0	0	526	489	
14	0	0	0	0	525	489	
15	0	0	0	0	525	489	
0	0	0	0	0	525	489	
1	0	0	0	0	524	489	
2	0	0	0	0	524	489	
3	0	0	0	0	524	489	
4	0	0	0	0	523	489	
5	0	0	0	0	523	489	
6	0	0	0	0	523	489	
7	0	0	0	0	523	489	
8	0	0	0	0	522	489	
9	0	0	0	0	521	489	
10	0	0	0	0	523	489	
11	0	0	0	0	523	489	
12	0	0	0	0	521	489	
13	0	0	0	0	519	489	
14	0	0	0	0	521	489	
15	0	0	0	0	520	489	
0	0	0	0	0	520	489	
1	0	0	0	0	520	489	
2	0	0	0	0	521	489	
3	0	0	0	0	520	489	
4	0	0	0	0	519	489	
5	0	0	0	0	519	489	
6	0	0	0	0	519	489	
7	0	0	0	0	519	489	
8	0	0	0	0	517	489	
9	0	0	0	0	515	488	
10	0	0	0	0	515	489	
11	0	0	0	0	515	489	
12	0	0	0	0	515	489	
13	0	0	0	0	514	489	
14	0	0	0	0	512	489	
15	0	0	0	0	511	489	
0	0	0	0	0	510	489	
1	0	0	0	0	510	489	
2	0	0	0	0	511	489	
3	0	0	0	0	511	489	
4	0	0	0	0	511	489	
5	0	0	0	0	510	489	
6	0	0	0	0	510	489	
7	0	0	0	0	509	489	
8	0	0	0	0	508	489	
9	0	0	0	0	508	489	
10	0	0	0	0	507	489	
11	0	0	0	0	507	489	
12	0	0	0	0	506	489	
13	0	0	0	0	505	489	
14	0	0	0	0	504	489	
15	0	0	0	0	502	489	
0	0	0	0	0	501	489	
1	0	0	0	0	500	489	
2	0	0	0	0	500	489	
3	0	0	0	0	499	489	
4	0	0	0	0	497	489	
5	0	0	0	0	497	489	
6	0	0	0	0	496	489	
7	0	0	0	0	496	489	
8	0	0	0	0	496	489	
9	0	0	0	0	496	489	
10	0	0	0	0	496	489	
11	0	0	0	0	495	489	
12	0	0	0	0	494	489	
13	0	0	0	0	492	489	
14	0	0	0	0	492	489	
15	0	0	0	0	492	489	
0	0	0	0	0	493	489	
1	0	0	0	0	494	489	
2	0	0	0	0	494	489	
3	0	0	0	0	495	489	
4	0	0	0	0	495	489	
5	0	0	0	0	495	489	
6	0	0	0	0	495	489	
7	0	0	0	0	494	489	
8	0	0	0	0	493	489	
9	0	0	0	0	492	489	
10	0	0	0	0	492	489	
11	0	0	0	0	491	489	
12	0	0	0	0	490	489	
13	0	0	0	0	490	489	
14	0	0	0	0	490	489	
15	0	0	0	0	490	489	
0	0	0	0	0	489	489	
1	0	0	0	0	488	489	
2	0	0	0	0	489	489	
3	0	0	0	0	488	489	
4	0	0	0	0	487	488	
5	0	0	0	0	488	488	
6	0	0	0	0	488	489	
7	0	0	0	0	488	489	
8	0	0	0	0	488	488	
9	0	0	0	0	489	489	
10	0	0	0	0	489	488	
11	0	0	0	0	489	489	
12	0	0	0	0	488	489	
13	0	0	0	0	488	489	
14	0	0	0	0	488	489	
15	0	0	0	0	489	488	
0	0	0	0	0	491	489	
1	0	0	0	0	491	489	
2	0	0	0	0	491	489	
3	0	0	0	0	491	489	
4	0	0	0	0	491	488	
5	0	0	0	0	491	489	
6	0	0	0	0	492	489	
7	0	0	0	0	491	489	
8	0	0	0	0	491	489	
9	0	0	0	0	490	488	
10	0	0	0	0	491	489	
11	0	0	0	0	492	489	
12	0	0	0	0	494	489	
13	0	0	0	0	494	489	
14	0	0	0	0	494	488	
15	0	0	0	0	495	489	
0	0	0	0	0	495	489	
1	0	0	0	0	495	489	
2	0	0	0	0	495	489	
3	0	0	0	0	496	489	
4	0	0	0	0	498	489	
5	0	0	0	0	496	489	
6	0	0	0	0	496	489	
7	0	0	0	0	497	489	
8	0	0	0	0	496	488	
9	0	0	0	0	497	489	
10	0	0	0	0	498	489	
11	0	0	0	0	497	489	
12	0	0	0	0	498	488	
13	0	0	0	0	497	488	
14	0	0	0	0	497	489	
15	0	0	0	0	496	489	
0	0	0	0	0	497	489	
1	0	0	0	0	497	489	
2	0	0	0	0	497	488	
3	0	0	0	0	497	489	
4	0	0	0	0	498	489	
5	0	0	0	0	499	488	
6	0	0	0	0	500	489	
7	0	0	0	0	501	489	
8	0	0	0	0	502	489	
9	0	0	0	0	503	489	
10	0	0	0	0	504	489	
11	0	0	0	0	506	489	
12	0	0	0	0	506	488	
13	0	0	0	0	505	488	
14	0	0	0	0	506	489	
15	0	0	0	0	507	489	
0	0	0	0	0	508	488	
1	0	0	0	0	508	489	
2	0	0	0	0	508	489	
3	0	0	0	0	507	488	
4	0	0	0	0	505	488	
5	0	0	0	0	505	488	
6	0	0	0	0	505	489	
7	0	0	0	0	505	488	
8	0	0	0	0	505	489	
9	0	0	0	0	507	489	
10	0	0	0	0	508	489	
11	0	0	0	0	507	488	
12	0	0	0	0	507	489	
13	0	0	0	0	508	489	
14	0	0	0	0	509	489	
15	0	0	0	0	509	488	
0	0	0	0	0	510	488	
1	0	0	0	0	510	489	
2	0	0	0	0	509	489	
3	0	0	0	0	510	489	
4	0	0	0	0	510	489	
5	0	0	0	0	511	488	
6	0	0	0	0	510	489	
7	0	0	0	0	510	488	
8	0	0	0	0	511	489	
9	0	0	0	0	511	489	
10	0	0	0	0	511	489	
11	0	0	0	0	511	488	
12	0	0	0	0	512	488	
13	0	0	0	0	512	489	
14	0	0	0	0	512	488	
15	0	0	0	0	513	488	
0	0	0	0	0	513	489	
1	0	0	0	0	513	489	
2	0	0	0	0	514	489	
3	0	0	0	0	513	489	
4	0	0	0	0	512	488	
5	0	0	0	0	512	489	
6	0	0	0	0	513	488	
7	0	0	0	0	513	489	
8	0	0	0	0	513	489	
9	0	0	0	0	512	489	
10	0	0	0	0	513	489	
11	0	0	0	0	513	488	
12	0	0	0	0	513	489	
13	0	0	0	0	514	489	
14	0	0	0	0	514	488	
15	0	0	0	0	514	488	
0	0	0	0	0	513	488	
1	0	0	0	0	513	488	
2	0	0	0	0	513	488	
3	0	0	0	0	512	489	
4	0	0	0	0	512	489	
5	0	0	0	0	512	488	
6	0	0	0	0	511	488	
7	0	0	0	0	512	489	
8	0	0	0	0	511	488	
9	0	0	0	0	511	488	
10	0	0	0	0	511	488	
11	0	0	0	0	511	489	
12	0	0	0	0	511	489	
13	0	0	0	0	511	488	
14	0	0	0	0	511	489	
15	0	0	0	0	510	488	
0	0	0	0	0	510	488	
1	0	0	0	0	509	489	
2	0	0	0	0	508	488	
3	0	0	0	0	508	489	
4	0	0	0	0	509	488	
5	0	0	0	0	509	488	
6	0	0	0	0	508	488	
7	0	0	0	0	508	488	
8	0	0	0	0	508	488	
9	0	0	0	0	508	488	
10	0	0	0	0	507	488	
11	0	0	0	0	507	488	
12	0	0	0	0	508	488	
13	0	0	0	0	508	488	
14	0	0	0	0	508	488	
15	0	0	0	0	508	488	
0	0	0	0	0	507	489	
1	0	0	0	0	505	488	
2	0	0	0	0	504	489	
3	0	0	0	0	505	489	
4	0	0	0	0	505	488	
5	0	0	0	0	507	489	
6	0	0	0	0	507	489	
7	0	0	0	0	507	489	
8	0	0	0	0	507	489	
9	0	0	0	0	508	489	
10	0	0	0	0	507	488	
11	0	0	0	0	507	488	
12	0	0	0	0	507	489	
13	0	0	0	0	506	489	
14	0	0	0	0	507	488	
15	0	0	0	0	507	488	
0	0	0	0	0	508	488	
1	0	0	0	0	510	489	
2	0	0	0	0	508	488	
3	0	0	0	0	508	488	
4	0	0	0	0	508	488	
5	0	0	0	0	508	488	
6	0	0	0	0	508	488	
7	0	0	0	0	508	488	
8	0	0	0	0	509	488	
9	0	0	0	0	509	488	
10	0	0	0	0	509	488	
11	0	0	0	0	509	489	
12	0	0	0	0	509	488	
13	0	0	0	0	509	489	
14	0	0	0	0	509	488	
15	0	0	0	0	509	488	
0	0	0	0	0	509	489	
1	0	0	0	0	508	488	
2	0	0	0	0	509	488	
3	0	0	0	0	509	488	
4	0	0	0	0	508	488	
5	0	0	0	0	507	488	
6	0	0	0	0	506	488	
7	0	0	0	0	506	488	
8	0	0	0	0	506	488	
9	0	0	0	0	505	488	
10	0	0	0	0	507	489	
11	0	0	0	0	507	488	
12	0	0	0	0	507	488	
13	0	0	0	0	507	488	
14	0	0	0	0	508	488	
15	0	0	0	0	508	489	
0	0	0	0	0	508	488	
1	0	0	0	0	508	488	
2	0	0	0	0	508	488	
3	0	0	0	0	508	489	
4	0	0	0	0	506	489	
5	0	0	0	0	505	488	
6	0	0	0	0	506	488	
7	0	0	0	0	506	488	
8	0	0	0	0	508	488	
9	0	0	0	0	509	489	
10	0	0	0	0	510	488	
11	0	0	0	0	511	488	
12	0	0	0	0	512	488	
13	0	0	0	0	512	488	
14	0	0	0	0	511	489	
15	0	0	0	0	509	488	
0	0	0	0	0	508	488	
1	0	0	0	0	508	488	
2	0	0	0	0	508	488	
3	0	0	0	0	509	489	
4	0	0	0	0	509	488	
5	0	0	0	0	510	488	
6	0	0	0	0	509	488	
7	0	0	0	0	509	488	
8	0	0	0	0	510	488	
9	0	0	0	0	511	488	
10	0	0	0	0	512	489	
11	0	0	0	0	511	488	
12	0	0	0	0	511	488	
13	0	0	0	0	511	488	
14	0	0	0	0	511	488	
15	0	0	0	0	511	488	
0	0	0	0	0	511	488	
1	0	0	0	0	510	488	
2	0	0	0	0	510	488	
3	0	0	0	0	509	488	
4	0	0	0	0	510	488	
5	0	0	0	0	511	488	
6	0	0	0	0	511	488	
7	0	0	0	0	511	488	
8	0	0	0	0	511	488	
9	0	0	0	0	511	488	
10	0	0	0	0	511	488	
11	0	0	0	0	511	488	
12	0	0	0	0	511	488	
13	0	0	0	0	511	488	
14	0	0	0	0	512	488	
15	0	0	0	0	513	488	
0	0	0	0	0	512	488	
1	0	0	0	0	512	489	
2	0	0	0	0	511	488	
3	0	0	0	0	511	488	
4	0	0	0	0	510	488	
5	0	0	0	0	509	488	
6	0	0	0	0	509	488	
7	0	0	0	0	509	488	
8	0	0	0	0	510	488	
9	0	0	0	0	509	488	
10	0	0	0	0	509	488	
11	0	0	0	0	509	488	
12	0	0	0	0	509	488	
13	0	0	0	0	510	488	
14	0	0	0	0	510	488	
15	0	0	0	0	510	488	
0	0	0	0	0	511	488	
1	0	0	0	0	513	488	
2	0	0	0	0	513	488	
3	0	0	0	0	514	488	
4	0	0	0	0	514	488	
5	0	0	0	0	514	488	
6	0	0	0	0	512	488	
7	0	0	0	0	513	488	
8	0	0	0	0	513	488	
9	0	0	0	0	512	488	
10	0	0	0	0	512	489	
11	0	0	0	0	512	488	
12	0	0	0	0	512	488	
13	0	0	0	0	511	488	
14	0	0	0	0	511	488	
15	0	0	0	0	509	489	
0	0	0	0	0	509	488	
1	0	0	0	0	508	488	
2	0	0	0	0	509	488	
3	0	0	0	0	508	488	
4	0	0	0	0	508	488	
5	0	0	0	0	509	488	
6	0	0	0	0	510	488	
7	0	0	0	0	509	488	
8	0	0	0	0	509	488	
9	0	0	0	0	508	488	
10	0	0	0	0	508	488	
11	0	0	0	0	508	488	
12	0	0	0	0	510	488	
13	0	0	0	0	510	488	
14	0	0	0	0	510	488	
15	0	0	0	0	510	488	
0	0	0	0	0	511	488	
1	0	0	0	0	510	488	
2	0	0	0	0	510	488	
3	0	0	0	0	511	488	
4	0	0	0	0	510	488	
5	0	0	0	0	510	488	
6	0	0	0	0	510	488	
7	0	0	0	0	509	488	
8	0	0	0	0	510	488	
9	0	0	0	0	512	488	
10	0	0	0	0	512	488	
11	0	0	0	0	511	488	
12	0	0	0	0	511	488	
13	0	0	0	0	512	489	
14	0	0	0	0	513	488	
15	0	0	0	0	513	488	
0	0	0	0	0	512	488	
1	0	0	0	0	512	488	
2	0	0	0	0	512	488	
3	0	0	0	0	512	488	
4	0	0	0	0	512	488	
5	0	0	0	0	512	488	
6	0	0	0	0	511	488	
7	0	0	0	0	513	488	
8	0	0	0	0	514	488	
9	0	0	0	0	514	488	
10	0	0	0	0	515	488	
11	0	0	0	0	515	488	
12	0	0	0	0	515	488	
13	0	0	0	0	515	488	
14	0	0	0	0	515	488	
15	0	0	0	0	517	488	
0	0	0	0	0	518	488	
1	0	0	0	0	520	488	
2	0	0	0	0	521	488	
3	0	0	0	0	523	488	
4	0	0	0	0	524	488	
5	0	0	0	0	524	488	
6	0	0	0	0	524	488	
7	0	0	0	0	523	488	
8	0	0	0	0	522	488	
9	0	0	0	0	521	488	
10	0	0	0	0	520	488	
11	0	0	0	0	520	488	
12	0	0	0	0	521	488	
13	0	0	0	0	522	488	
14	0	0	0	0	523	488	
15	0	0	0	0	524	488	
0	0	0	0	0	524	488	
1	0	0	0	0	525	488	
2	0	0	0	0	526	488	
3	0	0	0	0	527	488	
4	0	0	0	0	527	488	
5	0	0	0	0	527	488	
6	0	0	0	0	527	488	
7	0	0	0	0	527	488	
8	0	0	0	0	529	488	
9	0	0	0	0	529	488	
10	0	0	0	0	529	488	
11	0	0	0	0	528	488	
12	0	0	0	0	527	488	
13	0	0	0	0	526	488	
14	0	0	0	0	526	488	
15	0	0	0	0	526	488	
0	0	0	0	0	526	488	
1	0	0	0	0	528	488	
2	0	0	0	0	531	488	
3	0	0	0	0	533	488	
4	0	0	0	0	536	488	
5	0	0	0	0	537	488	
6	0	0	0	0	537	488	
7	0	0	0	0	538	488	
8	0	0	0	0	539	488	
9	0	0	0	0	540	488	
10	0	0	0	0	540	488	
11	0	0	0	0	541	488	
12	0	0	0	0	540	488	
13	0	0	0	0	539	488	
14	0	0	0	0	538	488	
15	0	0	0	0	537	488	
0	0	0	0	0	536	488	
1	0	0	0	0	534	488	
2	0	0	0	0	532	488	
3	0	0	0	0	531	488	
4	0	0	0	0	529	488	
5	0	0	0	0	527	488	
6	0	0	0	0	526	488	
7	0	0	0	0	525	488	
8	0	0	0	0	523	488	
9	0	0	0	0	522	488	
10	0	0	0	0	521	488	
11	0	0	0	0	520	488	
12	0	0	0	0	520	488	
13	0	0	0	0	519	488	
14	0	0	0	0	518	488	
15	0	0	0	0	516	488	
0	0	0	0	0	514	488	
1	0	0	0	0	512	488	
2	0	0	0	0	509	488	
3	0	0	0	0	507	488	
4	0	0	0	0	505	488	
5	0	0	0	0	503	488	
6	0	0	0	0	498	488	
7	0	0	0	0	494	488	
8	0	0	0	0	490	488	
9	0	0	0	0	487	488	
10	0	0	0	0	485	488	
11	0	0	0	0	484	488	
12	0	0	0	0	484	488	
13	0	0	0	0	483	488	
14	0	0	0	0	483	488	
15	0	0	0	0	482	488	
0	0	0	0	0	482	488	
1	0	0	0	0	481	488	
2	0	0	0	0	480	488	
3	0	0	0	0	479	488	
4	0	0	0	0	480	488	
5	0	0	0	0	479	488	
6	0	0	0	0	477	488	
7	0	0	0	0	476	488	
8	0	0	0	0	476	488	
9	0	0	0	0	475	488	
10	0	0	0	0	476	488	
11	0	0	0	0	476	488	
12	0	0	0	0	476	488	
13	0	0	0	0	477	488	
14	0	0	0	0	477	488	
15	0	0	0	0	478	488	
0	0	0	0	0	479	488	
1	0	0	0	0	479	488	
2	0	0	0	0	480	488	
3	0	0	0	0	480	488	
4	0	0	0	0	481	488	
5	0	0	0	0	482	488	
6	0	0	0	0	483	488	
7	0	0	0	0	483	488	
8	0	0	0	0	483	488	
9	0	0	0	0	483	488	
10	0	0	0	0	483	488	
11	0	0	0	0	484	488	
12	0	0	0	0	484	488	
13	0	0	0	0	484	488	
14	0	0	0	0	486	488	
15	0	0	0	0	486	488	
0	0	0	0	0	487	488	
1	0	0	0	0	487	488	
2	0	0	0	0	487	488	
3	0	0	0	0	487	488	
4	0	0	0	0	487	488	
5	0	0	0	0	486	488	
6	0	0	0	0	485	488	
7	0	0	0	0	483	488	
8	0	0	0	0	479	488	
9	0	0	0	0	473	488	
10	0	0	0	0	468	488	
11	0	0	0	0	465	488	
12	0	0	0	0	464	488	
13	0	0	0	0	464	488	
14	0	0	0	0	465	488	
15	0	0	0	0	467	488	
0	0	0	0	0	470	488	
1	0	0	0	0	474	488	
2	0	0	0	0	479	488	
3	0	0	0	0	485	488	
4	0	0	0	0	491	488	
5	0	0	0	0	497	488	
6	0	0	0	0	505	488	
7	0	0	0	0	513	488	
8	0	0	0	0	525	488	
9	0	0	0	0	537	488	
10	0	0	0	0	552	488	
11	0	0	0	0	568	488	
12	0	0	0	0	586	488	
13	0	0	0	0	606	488	
14	0	0	0	0	623	488	
15	0	0	0	0	642	488	
0	0	0	0	0	663	488	
1	0	0	0	0	684	488	
2	0	0	0	0	705	488	
3	0	0	0	0	725	488	
4	0	0	0	0	744	488	
5	0	0	0	0	764	488	
6	0	0	0	0	782	488	
7	0	0	0	0	797	488	
8	0	0	0	0	807	488	
9	0	0	0	0	811	488	
10	0	0	0	0	812	488	
11	0	0	0	0	809	487	
12	0	0	0	0	803	488	
13	0	0	0	0	790	488	
14	0	0	0	0	763	488	
15	0	0	0	0	729	488	
0	0	0	0	0	694	488	
1	0	0	0	0	659	488	
2	0	0	0	0	624	488	
3	0	0	0	0	589	488	
4	0	0	0	0	555	488	
5	0	0	0	0	523	488	
6	0	0	0	0	491	488	
7	0	0	0	0	463	488	
8	0	0	0	0	438	488	
9	0	0	0	0	417	488	
10	0	0	0	0	401	488	
11	0	0	0	0	389	488	
12	0	0	0	0	382	488	
13	0	0	0	0	377	488	
14	0	0	0	0	375	488	
15	0	0	0	0	374	488	
0	0	0	0	0	375	488	
1	0	0	0	0	376	488	
2	0	0	0	0	379	488	
3	0	0	0	0	381	488	
4	0	0	0	0	383	488	
5	0	0	0	0	385	488	
6	0	0	0	0	388	488	
7	0	0	0	0	391	488	
8	0	0	0	0	396	488	
9	0	0	0	0	400	488	
10	0	0	0	0	405	488	
11	0	0	0	0	410	488	
12	0	0	0	0	415	488	
13	0	0	0	0	420	488	
14	0	0	0	0	425	488	
15	0	0	0	0	430	488	
0	0	0	0	0	434	488	
1	0	0	0	0	439	488	
2	0	0	0	0	443	488	
3	0	0	0	0	447	488	
4	0	0	0	0	451	488	
5	0	0	0	0	455	488	
6	0	0	0	0	458	488	
7	0	0	0	0	460	488	
8	0	0	0	0	462	488	
9	0	0	0	0	463	488	
10	0	0	0	0	464	488	
11	0	0	0	0	466	488	
12	0	0	0	0	468	488	
13	0	0	0	0	469	488	
14	0	0	0	0	470	488	
15	0	0	0	0	470	488	
0	0	0	0	0	471	488	
1	0	0	0	0	472	488	
2	0	0	0	0	473	488	
3	0	0	0	0	474	488	
4	0	0	0	0	475	488	
5	0	0	0	0	476	488	
6	0	0	0	0	477	488	
7	0	0	0	0	478	488	
8	0	0	0	0	479	488	
9	0	0	0	0	480	488	
10	0	0	0	0	481	488	
11	0	0	0	0	481	488	
12	0	0	0	0	482	488	
13	0	0	0	0	483	488	
14	0	0	0	0	483	488	
15	0	0	0	0	484	488	
0	0	0	0	0	485	488	
1	0	0	0	0	486	488	
2	0	0	0	0	487	488	
3	0	0	0	0	487	488	
4	0	0	0	0	487	488	
5	0	0	0	0	489	488	
6	0	0	0	0	491	488	
7	0	0	0	0	491	488	
8	0	0	0	0	492	488	
9	0	0	0	0	492	488	
10	0	0	0	0	492	488	
11	0	0	0	0	493	488	
12	0	0	0	0	492	488	
13	0	0	0	0	492	488	
14	0	0	0	0	491	488	
15	0	0	0	0	491	488	
0	0	0	0	0	491	488	
1	0	0	0	0	492	488	
2	0	0	0	0	492	488	
3	0	0	0	0	493	488	
4	0	0	0	0	493	488	
5	0	0	0	0	492	488	
6	0	0	0	0	493	488	
7	0	0	0	0	494	488	
8	0	0	0	0	495	488	
9	0	0	0	0	496	488	
10	0	0	0	0	495	488	
11	0	0	0	0	495	488	
12	0	0	0	0	496	488	
13	0	0	0	0	496	488	
14	0	0	0	0	496	488	
15	0	0	0	0	496	488	
0	0	0	0	0	497	488	
1	0	0	0	0	498	488	
2	0	0	0	0	500	488	
3	0	0	0	0	501	488	
4	0	0	0	0	500	488	
5	0	0	0	0	499	488	
6	0	0	0	0	499	488	
7	0	0	0	0	499	488	
8	0	0	0	0	499	488	
9	0	0	0	0	500	488	
10	0	0	0	0	502	488	
11	0	0	0	0	504	488	
12	0	0	0	0	505	488	
13	0	0	0	0	505	488	
14	0	0	0	0	507	488	
15	0	0	0	0	507	488	
0	0	0	0	0	507	488	
1	0	0	0	0	507	488	
2	0	0	0	0	506	488	
3	0	0	0	0	505	488	
4	0	0	0	0	504	488	
5	0	0	0	0	503	488	
6	0	0	0	0	503	488	
7	0	0	0	0	502	488	
8	0	0	0	0	502	488	
9	0	0	0	0	502	488	
10	0	0	0	0	503	488	
11	0	0	0	0	504	488	
12	0	0	0	0	504	488	
13	0	0	0	0	505	488	
14	0	0	0	0	505	488	
15	0	0	0	0	504	488	
0	0	0	0	0	504	488	
1	0	0	0	0	504	488	
2	0	0	0	0	506	488	
3	0	0	0	0	505	488	
4	0	0	0	0	505	488	
5	0	0	0	0	504	488	
6	0	0	0	0	504	488	
7	0	0	0	0	504	488	
8	0	0	0	0	505	488	
9	0	0	0	0	505	488	
10	0	0	0	0	506	488	
11	0	0	0	0	505	488	
12	0	0	0	0	506	488	
13	0	0	0	0	507	488	
14	0	0	0	0	508	488	
15	0	0	0	0	508	488	
0	0	0	0	0	508	488	
1	0	0	0	0	508	488	
2	0	0	0	0	508	488	
3	0	0	0	0	507	488	
4	0	0	0	0	507	488	
5	0	0	0	0	506	488	
6	0	0	0	0	507	488	
7	0	0	0	0	507	488	
8	0	0	0	0	507	488	
9	0	0	0	0	507	488	
10	0	0	0	0	508	488	
11	0	0	0	0	508	488	
12	0	0	0	0	508	488	
13	0	0	0	0	508	488	
14	0	0	0	0	508	487	
15	0	0	0	0	509	488	
0	0	0	0	0	508	488	
1	0	0	0	0	508	488	
2	0	0	0	0	508	488	
3	0	0	0	0	508	488	
4	0	0	0	0	508	488	
5	0	0	0	0	507	488	
6	0	0	0	0	506	488	
7	0	0	0	0	507	488	
8	0	0	0	0	508	488	
9	0	0	0	0	509	488	
10	0	0	0	0	508	488	
11	0	0	0	0	509	488	
12	0	0	0	0	510	488	
13	0	0	0	0	511	488	
14	0	0	0	0	512	488	
15	0	0	0	0	512	488	
0	0	0	0	0	513	488	
1	0	0	0	0	513	488	
2	0	0	0	0	513	488	
3	0	0	0	0	513	488	
4	0	0	0	0	512	488	
5	0	0	0	0	512	488	
6	0	0	0	0	512	487	
7	0	0	0	0	512	488	
8	0	0	0	0	512	487	
9	0	0	0	0	512	488	
10	0	0	0	0	513	488	
11	0	0	0	0	513	488	
12	0	0	0	0	513	488	
13	0	0	0	0	513	488	
14	0	0	0	0	513	487	
15	0	0	0	0	514	488	
0	0	0	0	0	515	488	
1	0	0	0	0	515	488	
2	0	0	0	0	515	488	
3	0	0	0	0	515	488	
4	0	0	0	0	515	488	
5	0	0	0	0	517	488	
6	0	0	0	0	518	488	
7	0	0	0	0	518	488	
8	0	0	0	0	518	488	
9	0	0	0	0	518	488	
10	0	0	0	0	519	488	
11	0	0	0	0	520	488	
12	0	0	0	0	520	488	
13	0	0	0	0	520	488	
14	0	0	0	0	521	488	
15	0	0	0	0	521	488	
0	0	0	0	0	521	488	
1	0	0	0	0	521	488	
2	0	0	0	0	521	487	
3	0	0	0	0	521	488	
4	0	0	0	0	521	488	
5	0	0	0	0	521	488	
6	0	0	0	0	522	488	
7	0	0	0	0	522	488	
8	0	0	0	0	522	488	
9	0	0	0	0	522	488	
10	0	0	0	0	522	487	
11	0	0	0	0	523	488	
12	0	0	0	0	523	487	
13	0	0	0	0	524	488	
14	0	0	0	0	524	488	
15	0	0	0	0	524	488	
0	0	0	0	0	524	487	
1	0	0	0	0	525	487	
2	0	0	0	0	525	488	
3	0	0	0	0	524	488	
4	0	0	0	0	524	488	
5	0	0	0	0	525	488	
6	0	0	0	0	525	488	
7	0	0	0	0	525	488	
8	0	0	0	0	524	488	
9	0	0	0	0	525	488	
10	0	0	0	0	525	488	
11	0	0	0	0	527	488	
12	0	0	0	0	527	488	
13	0	0	0	0	527	488	
14	0	0	0	0	528	487	
15	0	0	0	0	526	488	
0	0	0	0	0	525	487	
1	0	0	0	0	525	488	
2	0	0	0	0	524	488	
3	0	0	0	0	523	488	
4	0	0	0	0	523	488	
5	0	0	0	0	523	488	
6	0	0	0	0	522	488	
7	0	0	0	0	523	488	
8	0	0	0	0	524	488	
9	0	0	0	0	524	488	
10	0	0	0	0	523	488	
11	0	0	0	0	522	488	
12	0	0	0	0	522	488	
13	0	0	0	0	523	487	
14	0	0	0	0	522	487	
15	0	0	0	0	522	488	
0	0	0	0	0	521	488	
1	0	0	0	0	520	488	
2	0	0	0	0	520	488	
3	0	0	0	0	520	487	
4	0	0	0	0	521	488	
5	0	0	0	0	520	488	
6	0	0	0	0	520	488	
7	0	0	0	0	519	487	
8	0	0	0	0	518	487	
9	0	0	0	0	518	488	
10	0	0	0	0	518	488	
11	0	0	0	0	517	487	
12	0	0	0	0	515	487	
13	0	0	0	0	514	488	
14	0	0	0	0	513	487	
15	0	0	0	0	514	488	
0	0	0	0	0	513	488	
1	0	0	0	0	512	487	
2	0	0	0	0	511	487	
3	0	0	0	0	511	487	
4	0	0	0	0	510	488	
5	0	0	0	0	510	487	
6	0	0	0	0	509	487	
7	0	0	0	0	509	487	
8	0	0	0	0	509	488	
9	0	0	0	0	509	488	
10	0	0	0	0	508	488	
11	0	0	0	0	507	487	
12	0	0	0	0	507	487	
13	0	0	0	0	505	488	
14	0	0	0	0	504	488	
15	0	0	0	0	503	488	
0	0	0	0	0	503	488	
1	0	0	0	0	502	487	
2	0	0	0	0	501	487	
3	0	0	0	0	501	488	
4	0	0	0	0	499	488	
5	0	0	0	0	498	488	
6	0	0	0	0	497	487	
7	0	0	0	0	496	487	
8	0	0	0	0	496	488	
9	0	0	0	0	496	487	
10	0	0	0	0	496	488	
11	0	0	0	0	496	487	
12	0	0	0	0	496	488	
13	0	0	0	0	496	487	
14	0	0	0	0	495	488	
15	0	0	0	0	494	487	
0	0	0	0	0	492	487	
1	0	0	0	0	491	487	
2	0	0	0	0	490	488	
3	0	0	0	0	489	487	
4	0	0	0	0	489	488	
5	0	0	0	0	490	488	
6	0	0	0	0	491	487	
7	0	0	0	0	491	488	
8	0	0	0	0	490	487	
9	0	0	0	0	489	488	
10	0	0	0	0	488	488	
11	0	0	0	0	489	487	
12	0	0	0	0	489	488	
13	0	0	0	0	488	488	
14	0	0	0	0	488	488	
15	0	0	0	0	489	487	
0	0	0	0	0	488	488	
1	0	0	0	0	488	488	
2	0	0	0	0	488	488	
3	0	0	0	0	489	487	
4	0	0	0	0	489	487	
5	0	0	0	0	488	487	
6	0	0	0	0	487	487	
7	0	0	0	0	487	488	
8	0	0	0	0	487	488	
9	0	0	0	0	487	487	
10	0	0	0	0	486	487	
11	0	0	0	0	487	488	
12	0	0	0	0	487	488	
13	0	0	0	0	488	487	
14	0	0	0	0	489	487	
15	0	0	0	0	489	487	
0	0	0	0	0	489	488	
1	0	0	0	0	489	487	
2	0	0	0	0	490	487	
3	0	0	0	0	491	487	
4	0	0	0	0	491	487	
5	0	0	0	0	492	488	
6	0	0	0	0	492	487	
7	0	0	0	0	492	487	
8	0	0	0	0	492	487	
9	0	0	0	0	493	487	
10	0	0	0	0	493	488	
11	0	0	0	0	493	487	
12	0	0	0	0	492	487	
13	0	0	0	0	492	487	
14	0	0	0	0	492	487	
15	0	0	0	0	493	487	
0	0	0	0	0	493	487	
1	0	0	0	0	492	487	
2	0	0	0	0	492	487	
3	0	0	0	0	492	487	
4	0	0	0	0	492	487	
5	0	0	0	0	493	487	
6	0	0	0	0	493	487	
7	0	0	0	0	492	487	
8	0	0	0	0	493	487	
9	0	0	0	0	493	488	
10	0	0	0	0	492	487	
11	0	0	0	0	493	487	
12	0	0	0	0	495	487	
13	0	0	0	0	496	487	
14	0	0	0	0	497	487	
15	0	0	0	0	498	487	
0	0	0	0	0	499	487	
1	0	0	0	0	500	487	
2	0	0	0	0	499	487	
3	0	0	0	0	499	488	
4	0	0	0	0	499	487	
5	0	0	0	0	499	487	
6	0	0	0	0	499	487	
7	0	0	0	0	500	487	
8	0	0	0	0	501	488	
9	0	0	0	0	502	487	
10	0	0	0	0	502	487	
11	0	0	0	0	502	487	
12	0	0	0	0	502	487	
13	0	0	0	0	502	487	
14	0	0	0	0	502	487	
15	0	0	0	0	502	488	
0	0	0	0	0	503	487	
1	0	0	0	0	504	487	
2	0	0	0	0	504	487	
3	0	0	0	0	503	487	
4	0	0	0	0	503	487	
5	0	0	0	0	503	488	
6	0	0	0	0	503	487	
7	0	0	0	0	503	488	
8	0	0	0	0	504	488	
9	0	0	0	0	504	487	
10	0	0	0	0	504	487	
11	0	0	0	0	504	487	
12	0	0	0	0	503	487	
13	0	0	0	0	503	487	
14	0	0	0	0	503	487	
15	0	0	0	0	503	487	
0	0	0	0	0	504	487	
1	0	0	0	0	504	488	
2	0	0	0	0	504	487	
3	0	0	0	0	504	487	
4	0	0	0	0	504	488	
5	0	0	0	0	504	487	
6	0	0	0	0	505	488	
7	0	0	0	0	505	487	
8	0	0	0	0	505	487	
9	0	0	0	0	507	487	
10	0	0	0	0	508	487	
11	0	0	0	0	507	488	
12	0	0	0	0	507	487	
13	0	0	0	0	507	487	
14	0	0	0	0	505	487	
15	0	0	0	0	506	487	
0	0	0	0	0	506	487	
1	0	0	0	0	506	487	
2	0	0	0	0	506	487	
3	0	0	0	0	507	487	
4	0	0	0	0	507	487	
5	0	0	0	0	506	487	
6	0	0	0	0	506	487	
7	0	0	0	0	507	487	
8	0	0	0	0	508	487	
9	0	0	0	0	509	487	
10	0	0	0	0	510	487	
11	0	0	0	0	511	487	
12	0	0	0	0	512	487	
13	0	0	0	0	511	487	
14	0	0	0	0	510	487	
15	0	0	0	0	509	487	
0	0	0	0	0	509	487	
1	0	0	0	0	508	487	
2	0	0	0	0	508	487	
3	0	0	0	0	508	487	
4	0	0	0	0	508	487	
5	0	0	0	0	508	487	
6	0	0	0	0	508	487	
7	0	0	0	0	507	487	
8	0	0	0	0	507	487	
9	0	0	0	0	507	487	
10	0	0	0	0	508	487	
11	0	0	0	0	508	487	
12	0	0	0	0	508	487	
13	0	0	0	0	508	487	
14	0	0	0	0	507	487	
15	0	0	0	0	506	487	
0	0	0	0	0	506	487	
1	0	0	0	0	505	487	
2	0	0	0	0	505	487	
3	0	0	0	0	505	487	
4	0	0	0	0	507	487	
5	0	0	0	0	508	487	
6	0	0	0	0	509	487	
7	0	0	0	0	509	487	
8	0	0	0	0	509	487	
9	0	0	0	0	508	487	
10	0	0	0	0	510	487	
11	0	0	0	0	509	487	
12	0	0	0	0	509	487	
13	0	0	0	0	508	487	
14	0	0	0	0	508	487	
15	0	0	0	0	507	487	
0	0	0	0	0	507	487	
1	0	0	0	0	506	487	
2	0	0	0	0	506	487	
3	0	0	0	0	506	487	
4	0	0	0	0	505	487	
5	0	0	0	0	504	487	
6	0	0	0	0	504	487	
7	0	0	0	0	505	487	
8	0	0	0	0	505	487	
9	0	0	0	0	505	487	
10	0	0	0	0	504	487	
11	0	0	0	0	504	487	
12	0	0	0	0	505	487	
13	0	0	0	0	505	487	
14	0	0	0	0	506	487	
15	0	0	0	0	507	487	
0	0	0	0	0	507	487	
1	0	0	0	0	505	487	
2	0	0	0	0	504	487	
3	0	0	0	0	504	487	
4	0	0	0	0	503	487	
5	0	0	0	0	503	487	
6	0	0	0	0	504	487	
7	0	0	0	0	505	487	
8	0	0	0	0	505	487	
9	0	0	0	0	504	487	
10	0	0	0	0	504	487	
11	0	0	0	0	503	488	
12	0	0	0	0	502	487	
13	0	0	0	0	503	487	
14	0	0	0	0	503	487	
15	0	0	0	0	503	487	
0	0	0	0	0	505	488	
1	0	0	0	0	507	487	
2	0	0	0	0	506	487	
3	0	0	0	0	504	487	
4	0	0	0	0	504	487	
5	0	0	0	0	504	487	
6	0	0	0	0	503	487	
7	0	0	0	0	503	487	
8	0	0	0	0	503	487	
9	0	0	0	0	503	487	
10	0	0	0	0	504	487	
11	0	0	0	0	504	487	
12	0	0	0	0	504	487	
13	0	0	0	0	505	487	
14	0	0	0	0	506	487	
15	0	0	0	0	507	487	
0	0	0	0	0	507	487	
1	0	0	0	0	507	487	
2	0	0	0	0	507	487	
3	0	0	0	0	507	487	
4	0	0	0	0	507	487	
5	0	0	0	0	507	487	
6	0	0	0	0	507	487	
7	0	0	0	0	506	487	
8	0	0	0	0	505	487	
9	0	0	0	0	505	487	
10	0	0	0	0	505	487	
11	0	0	0	0	505	487	
12	0	0	0	0	504	487	
13	0	0	0	0	505	487	
14	0	0	0	0	505	487	
15	0	0	0	0	505	487	
0	0	0	0	0	506	487	
1	0	0	0	0	506	487	
2	0	0	0	0	507	487	
3	0	0	0	0	507	487	
4	0	0	0	0	507	487	
5	0	0	0	0	506	487	
6	0	0	0	0	507	487	
7	0	0	0	0	507	487	
8	0	0	0	0	507	487	
9	0	0	0	0	508	487	
10	0	0	0	0	508	487	
11	0	0	0	0	508	487	
12	0	0	0	0	508	487	
13	0	0	0	0	509	487	
14	0	0	0	0	509	487	
15	0	0	0	0	508	487	
0	0	0	0	0	507	487	
1	0	0	0	0	507	487	
2	0	0	0	0	506	487	
3	0	0	0	0	505	487	
4	0	0	0	0	505	487	
5	0	0	0	0	505	487	
6	0	0	0	0	504	487	
7	0	0	0	0	504	487	
8	0	0	0	0	504	487	
9	0	0	0	0	504	487	
10	0	0	0	0	504	487	
11	0	0	0	0	504	487	
12	0	0	0	0	505	487	
13	0	0	0	0	505	487	
14	0	0	0	0	506	487	
15	0	0	0	0	507	487	
0	0	0	0	0	508	487	
1	0	0	0	0	507	487	
2	0	0	0	0	505	487	
3	0	0	0	0	505	487	
4	0	0	0	0	505	487	
5	0	0	0	0	505	487	
6	0	0	0	0	505	487	
7	0	0	0	0	504	487	
8	0	0	0	0	504	487	
9	0	0	0	0	504	487	
10	0	0	0	0	504	487	
11	0	0	0	0	504	487	
12	0	0	0	0	505	487	
13	0	0	0	0	507	487	
14	0	0	0	0	508	487	
15	0	0	0	0	510	487	
0	0	0	0	0	509	487	
1	0	0	0	0	509	487	
2	0	0	0	0	508	487	
3	0	0	0	0	507	487	
4	0	0	0	0	506	487	
5	0	0	0	0	506	487	
6	0	0	0	0	505	487	
7	0	0	0	0	505	487	
8	0	0	0	0	505	487	
9	0	0	0	0	506	487	
10	0	0	0	0	507	487	
11	0	0	0	0	507	487	
12	0	0	0	0	506	487	
13	0	0	0	0	506	487	
14	0	0	0	0	506	487	
15	0	0	0	0	507	487	
0	0	0	0	0	508	487	
1	0	0	0	0	508	487	
2	0	0	0	0	508	487	
3	0	0	0	0	509	487	
4	0	0	0	0	509	487	
5	0	0	0	0	510	487	
6	0	0	0	0	509	487	
7	0	0	0	0	509	487	
8	0	0	0	0	509	487	
9	0	0	0	0	509	487	
10	0	0	0	0	509	487	
11	0	0	0	0	508	487	
12	0	0	0	0	508	487	
13	0	0	0	0	508	487	
14	0	0	0	0	507	487	
15	0	0	0	0	507	487	
0	0	0	0	0	507	487	
1	0	0	0	0	507	487	
2	0	0	0	0	508	487	
3	0	0	0	0	507	487	
4	0	0	0	0	507	487	
5	0	0	0	0	506	487	
6	0	0	0	0	505	487	
7	0	0	0	0	505	487	
8	0	0	0	0	506	487	
9	0	0	0	0	506	487	
10	0	0	0	0	507	487	
11	0	0	0	0	507	487	
12	0	0	0	0	508	487	
13	0	0	0	0	508	487	
14	0	0	0	0	508	487	
15	0	0	0	0	508	487	
0	0	0	0	0	508	487	
1	0	0	0	0	508	487	
2	0	0	0	0	509	487	
3	0	0	0	0	509	487	
4	0	0	0	0	509	487	
5	0	0	0	0	510	487	
6	0	0	0	0	508	487	
7	0	0	0	0	509	487	
8	0	0	0	0	509	487	
9	0	0	0	0	508	487	
10	0	0	0	0	508	487	
11	0	0	0	0	507	487	
12	0	0	0	0	506	487	
13	0	0	0	0	505	487	
14	0	0	0	0	505	487	
15	0	0	0	0	506	487	
0	0	0	0	0	507	487	
1	0	0	0	0	508	487	
2	0	0	0	0	508	487	
3	0	0	0	0	510	487	
4	0	0	0	0	511	487	
5	0	0	0	0	511	487	
6	0	0	0	0	512	487	
7	0	0	0	0	511	487	
8	0	0	0	0	512	487	
9	0	0	0	0	511	487	
10	0	0	0	0	512	487	
11	0	0	0	0	512	487	
12	0	0	0	0	514	487	
13	0	0	0	0	515	487	
14	0	0	0	0	516	487	
15	0	0	0	0	516	487	
0	0	0	0	0	517	487	
1	0	0	0	0	518	487	
2	0	0	0	0	519	487	
3	0	0	0	0	519	487	
4	0	0	0	0	519	487	
5	0	0	0	0	519	487	
6	0	0	0	0	519	487	
7	0	0	0	0	520	487	
8	0	0	0	0	521	487	
9	0	0	0	0	520	487	
10	0	0	0	0	520	487	
11	0	0	0	0	518	487	
12	0	0	0	0	519	487	
13	0	0	0	0	519	487	
14	0	0	0	0	520	487	
15	0	0	0	0	523	487	
0	0	0	0	0	525	487	
1	0	0	0	0	527	487	
2	0	0	0	0	527	487	
3	0	0	0	0	528	487	
4	0	0	0	0	530	487	
5	0	0	0	0	531	487	
6	0	0	0	0	532	487	
7	0	0	0	0	532	487	
8	0	0	0	0	533	487	
9	0	0	0	0	532	487	
10	0	0	0	0	532	487	
11	0	0	0	0	533	487	
12	0	0	0	0	533	487	
13	0	0	0	0	534	487	
14	0	0	0	0	536	487	
15	0	0	0	0	539	487	
0	0	0	0	0	541	487	
1	0	0	0	0	543	487	
2	0	0	0	0	543	487	
3	0	0	0	0	545	487	
4	0	0	0	0	546	487	
5	0	0	0	0	547	487	
6	0	0	0	0	547	487	
7	0	0	0	0	546	487	
8	0	0	0	0	545	487	
9	0	0	0	0	543	487	
10	0	0	0	0	542	487	
11	0	0	0	0	542	487	
12	0	0	0	0	541	487	
13	0	0	0	0	539	487	
14	0	0	0	0	538	487	
15	0	0	0	0	537	487	
0	0	0	0	0	536	487	
1	0	0	0	0	535	487	
2	0	0	0	0	532	487	
3	0	0	0	0	532	487	
4	0	0	0	0	532	487	
5	0	0	0	0	531	487	
6	0	0	0	0	530	487	
7	0	0	0	0	530	487	
8	0	0	0	0	529	487	
9	0	0	0	0	528	487	
10	0	0	0	0	527	487	
11	0	0	0	0	526	487	
12	0	0	0	0	523	487	
13	0	0	0	0	519	487	
14	0	0	0	0	517	487	
15	0	0	0	0	515	487	
0	0	0	0	0	512	487	
1	0	0	0	0	508	487	
2	0	0	0	0	503	487	
3	0	0	0	0	499	487	
4	0	0	0	0	496	487	
5	0	0	0	0	492	487	
6	0	0	0	0	490	487	
7	0	0	0	0	487	487	
8	0	0	0	0	486	487	
9	0	0	0	0	485	487	
10	0	0	0	0	484	487	
11	0	0	0	0	484	487	
12	0	0	0	0	483	487	
13	0	0	0	0	482	487	
14	0	0	0	0	481	487	
15	0	0	0	0	481	487	
0	0	0	0	0	481	487	
1	0	0	0	0	480	487	
2	0	0	0	0	480	487	
3	0	0	0	0	480	487	
4	0	0	0	0	480	487	
5	0	0	0	0	480	487	
6	0	0	0	0	480	487	
7	0	0	0	0	480	487	
8	0	0	0	0	481	487	
9	0	0	0	0	481	487	
10	0	0	0	0	482	487	
11	0	0	0	0	483	487	
12	0	0	0	0	483	487	
13	0	0	0	0	484	487	
14	0	0	0	0	484	487	
15	0	0	0	0	484	487	
0	0	0	0	0	485	487	
1	0	0	0	0	486	487	
2	0	0	0	0	485	487	
3	0	0	0	0	484	487	
4	0	0	0	0	485	487	
5	0	0	0	0	486	487	
6	0	0	0	0	486	487	
7	0	0	0	0	486	487	
8	0	0	0	0	487	487	
9	0	0	0	0	487	487	
10	0	0	0	0	487	487	
11	0	0	0	0	488	487	
12	0	0	0	0	488	487	
13	0	0	0	0	488	487	
14	0	0	0	0	489	487	
15	0	0	0	0	490	487	
0	0	0	0	0	490	487	
1	0	0	0	0	491	487	
2	0	0	0	0	491	487	
3	0	0	0	0	487	487	
4	0	0	0	0	483	487	
5	0	0	0	0	478	487	
6	0	0	0	0	474	487	
7	0	0	0	0	470	487	
8	0	0	0	0	467	487	
9	0	0	0	0	467	487	
10	0	0	0	0	467	487	
11	0	0	0	0	470	487	
12	0	0	0	0	474	487	
13	0	0	0	0	478	487	
14	0	0	0	0	480	487	
15	0	0	0	0	484	487	
0	0	0	0	0	488	487	
1	0	0	0	0	494	487	
2	0	0	0	0	500	487	
3	0	0	0	0	510	487	
4	0	0	0	0	521	487	
5	0	0	0	0	534	487	
6	0	0	0	0	548	487	
7	0	0	0	0	565	487	
8	0	0	0	0	582	487	
9	0	0	0	0	600	487	
10	0	0	0	0	619	487	
11	0	0	0	0	639	487	
12	0	0	0	0	659	487	
13	0	0	0	0	677	487	
14	0	0	0	0	696	487	
15	0	0	0	0	716	487	
0	0	0	0	0	736	487	
1	0	0	0	0	755	487	
2	0	0	0	0	772	487	
3	0	0	0	0	786	487	
4	0	0	0	0	793	487	
5	0	0	0	0	797	487	
6	0	0	0	0	797	487	
7	0	0	0	0	795	487	
8	0	0	0	0	788	487	
9	0	0	0	0	774	487	
10	0	0	0	0	751	487	
11	0	0	0	0	722	487	
12	0	0	0	0	692	487	
13	0	0	0	0	662	487	
14	0	0	0	0	631	487	
15	0	0	0	0	600	487	
0	0	0	0	0	571	487	
1	0	0	0	0	542	487	
2	0	0	0	0	515	487	
3	0	0	0	0	488	487	
4	0	0	0	0	462	487	
5	0	0	0	0	440	487	
6	0	0	0	0	422	487	
7	0	0	0	0	408	487	
8	0	0	0	0	398	487	
9	0	0	0	0	390	487	
10	0	0	0	0	385	487	
11	0	0	0	0	383	487	
12	0	0	0	0	382	487	
13	0	0	0	0	382	487	
14	0	0	0	0	383	487	
15	0	0	0	0	383	487	
0	0	0	0	0	383	487	
1	0	0	0	0	384	487	
2	0	0	0	0	385	487	
3	0	0	0	0	386	487	
4	0	0	0	0	387	487	
5	0	0	0	0	389	487	
6	0	0	0	0	391	487	
7	0	0	0	0	395	487	
8	0	0	0	0	397	487	
9	0	0	0	0	401	487	
10	0	0	0	0	406	487	
11	0	0	0	0	410	487	
12	0	0	0	0	414	487	
13	0	0	0	0	418	487	
14	0	0	0	0	422	487	
15	0	0	0	0	426	487	
0	0	0	0	0	431	487	
1	0	0	0	0	435	487	
2	0	0	0	0	440	487	
3	0	0	0	0	445	487	
4	0	0	0	0	449	487	
5	0	0	0	0	454	487	
6	0	0	0	0	457	487	
7	0	0	0	0	461	487	
8	0	0	0	0	463	487	
9	0	0	0	0	465	487	
10	0	0	0	0	466	487	
11	0	0	0	0	467	487	
12	0	0	0	0	469	487	
13	0	0	0	0	470	487	
14	0	0	0	0	471	487	
15	0	0	0	0	472	487	
0	0	0	0	0	473	487	
1	0	0	0	0	474	487	
2	0	0	0	0	475	487	
3	0	0	0	0	476	487	
4	0	0	0	0	478	487	
5	0	0	0	0	479	487	
6	0	0	0	0	480	487	
7	0	0	0	0	480	487	
8	0	0	0	0	480	487	
9	0	0	0	0	481	487	
10	0	0	0	0	481	487	
11	0	0	0	0	481	487	
12	0	0	0	0	482	487	
13	0	0	0	0	483	487	
14	0	0	0	0	483	487	
15	0	0	0	0	483	487	
0	0	0	0	0	483	487	
1	0	0	0	0	484	487	
2	0	0	0	0	485	487	
3	0	0	0	0	486	487	
4	0	0	0	0	486	487	
5	0	0	0	0	487	487	
6	0	0	0	0	488	487	
7	0	0	0	0	489	487	
8	0	0	0	0	489	487	
9	0	0	0	0	490	487	
10	0	0	0	0	492	487	
11	0	0	0	0	493	487	
12	0	0	0	0	495	487	
13	0	0	0	0	496	487	
14	0	0	0	0	498	487	
15	0	0	0	0	498	487	
0	0	0	0	0	498	487	
1	0	0	0	0	498	487	
2	0	0	0	0	498	487	
3	0	0	0	0	497	487	
4	0	0	0	0	496	487	
5	0	0	0	0	496	487	
6	0	0	0	0	496	487	
7	0	0	0	0	497	487	
8	0	0	0	0	497	487	
9	0	0	0	0	497	487	
10	0	0	0	0	499	487	
11	0	0	0	0	499	487	
12	0	0	0	0	500	487	
13	0	0	0	0	499	487	
14	0	0	0	0	499	487	
15	0	0	0	0	499	487	
0	0	0	0	0	500	487	
1	0	0	0	0	500	487	
2	0	0	0	0	500	487	
3	0	0	0	0	500	487	
4	0	0	0	0	499	487	
5	0	0	0	0	499	487	
6	0	0	0	0	499	487	
7	0	0	0	0	498	487	
8	0	0	0	0	499	487	
9	0	0	0	0	499	487	
10	0	0	0	0	499	487	
11	0	0	0	0	500	487	
12	0	0	0	0	500	487	
13	0	0	0	0	502	487	
14	0	0	0	0	504	487	
15	0	0	0	0	504	487	
0	0	0	0	0	505	487	
1	0	0	0	0	505	487	
2	0	0	0	0	506	487	
3	0	0	0	0	506	487	
4	0	0	0	0	505	487	
5	0	0	0	0	505	487	
6	0	0	0	0	505	487	
7	0	0	0	0	504	487	
8	0	0	0	0	504	487	
9	0	0	0	0	503	487	
10	0	0	0	0	504	487	
11	0	0	0	0	504	487	
12	0	0	0	0	504	487	
13	0	0	0	0	504	487	
14	0	0	0	0	504	487	
15	0	0	0	0	505	487	
0	0	0	0	0	504	487	
1	0	0	0	0	504	487	
2	0	0	0	0	504	487	
3	0	0	0	0	505	487	
4	0	0	0	0	507	487	
5	0	0	0	0	505	487	
6	0	0	0	0	505	487	
7	0	0	0	0	505	487	
8	0	0	0	0	504	487	
9	0	0	0	0	504	487	
10	0	0	0	0	504	487	
11	0	0	0	0	504	487	
12	0	0	0	0	504	487	
13	0	0	0	0	504	487	
14	0	0	0	0	505	487	
15	0	0	0	0	505	487	
0	0	0	0	0	505	487	
1	0	0	0	0	505	487	
2	0	0	0	0	505	487	
3	0	0	0	0	506	487	
4	0	0	0	0	506	487	
5	0	0	0	0	505	487	
6	0	0	0	0	507	487	
7	0	0	0	0	509	487	
8	0	0	0	0	510	487	
9	0	0	0	0	511	487	
10	0	0	0	0	512	487	
11	0	0	0	0	513	487	
12	0	0	0	0	513	487	
13	0	0	0	0	513	487	
14	0	0	0	0	512	487	
15	0	0	0	0	512	487	
0	0	0	0	0	512	487	
1	0	0	0	0	512	487	
2	0	0	0	0	512	487	
3	0	0	0	0	512	487	
4	0	0	0	0	512	487	
5	0	0	0	0	512	487	
6	0	0	0	0	513	487	
7	0	0	0	0	515	487	
8	0	0	0	0	515	487	
9	0	0	0	0	516	487	
10	0	0	0	0	516	487	
11	0	0	0	0	517	487	
12	0	0	0	0	517	487	
13	0	0	0	0	516	487	
14	0	0	0	0	515	487	
15	0	0	0	0	514	487	
0	0	0	0	0	513	487	
1	0	0	0	0	513	487	
2	0	0	0	0	513	487	
3	0	0	0	0	514	487	
4	0	0	0	0	515	487	
5	0	0	0	0	515	487	
6	0	0	0	0	515	487	
7	0	0	0	0	515	487	
8	0	0	0	0	515	487	
9	0	0	0	0	514	487	
10	0	0	0	0	514	487	
11	0	0	0	0	515	487	
12	0	0	0	0	515	487	
13	0	0	0	0	515	487	
14	0	0	0	0	516	487	
15	0	0	0	0	517	487	
0	0	0	0	0	518	487	
1	0	0	0	0	518	487	
2	0	0	0	0	519	487	
3	0	0	0	0	518	487	
4	0	0	0	0	519	487	
5	0	0	0	0	519	487	
6	0	0	0	0	520	487	
7	0	0	0	0	521	487	
8	0	0	0	0	521	487	
9	0	0	0	0	521	487	
10	0	0	0	0	521	487	
11	0	0	0	0	522	487	
12	0	0	0	0	523	487	
13	0	0	0	0	524	487	
14	0	0	0	0	524	487	
15	0	0	0	0	524	487	
0	0	0	0	0	524	487	
1	0	0	0	0	524	487	
2	0	0	0	0	526	487	
3	0	0	0	0	527	487	
4	0	0	0	0	528	487	
5	0	0	0	0	529	487	
6	0	0	0	0	530	487	
7	0	0	0	0	530	487	
8	0	0	0	0	530	487	
9	0	0	0	0	529	487	
10	0	0	0	0	529	487	
11	0	0	0	0	529	487	
12	0	0	0	0	530	487	
13	0	0	0	0	531	487	
14	0	0	0	0	530	487	
15	0	0	0	0	530	487	
0	0	0	0	0	529	487	
1	0	0	0	0	530	487	
2	0	0	0	0	530	487	
3	0	0	0	0	529	487	
4	0	0	0	0	529	487	
5	0	0	0	0	528	487	
6	0	0	0	0	527	487	
7	0	0	0	0	527	487	
8	0	0	0	0	527	487	
9	0	0	0	0	527	487	
10	0	0	0	0	527	487	
11	0	0	0	0	527	487	
12	0	0	0	0	527	487	
13	0	0	0	0	527	487	
14	0	0	0	0	526	487	
15	0	0	0	0	527	487	
0	0	0	0	0	527	487	
1	0	0	0	0	526	487	
2	0	0	0	0	526	487	
3	0	0	0	0	526	487	
4	0	0	0	0	526	487	
5	0	0	0	0	526	487	
6	0	0	0	0	524	487	
7	0	0	0	0	524	487	
8	0	0	0	0	524	487	
9	0	0	0	0	524	487	
10	0	0	0	0	524	487	
11	0	0	0	0	522	487	
12	0	0	0	0	522	487	
13	0	0	0	0	522	487	
14	0	0	0	0	521	487	
15	0	0	0	0	520	487	
0	0	0	0	0	519	487	
1	0	0	0	0	518	487	
2	0	0	0	0	517	487	
3	0	0	0	0	516	487	
4	0	0	0	0	515	487	
5	0	0	0	0	515	487	
6	0	0	0	0	516	487	
7	0	0	0	0	515	487	
8	0	0	0	0	514	487	
9	0	0	0	0	514	487	
10	0	0	0	0	514	487	
11	0	0	0	0	513	487	
12	0	0	0	0	512	487	
13	0	0	0	0	512	487	
14	0	0	0	0	512	487	
15	0	0	0	0	511	487	
0	0	0	0	0	510	487	
1	0	0	0	0	511	487	
2	0	0	0	0	510	487	
3	0	0	0	0	511	487	
4	0	0	0	0	511	487	
5	0	0	0	0	512	487	
6	0	0	0	0	512	487	
7	0	0	0	0	512	487	
8	0	0	0	0	513	487	
9	0	0	0	0	513	487	
10	0	0	0	0	512	487	
11	0	0	0	0	512	487	
12	0	0	0	0	511	487	
13	0	0	0	0	509	487	
14	0	0	0	0	507	487	
15	0	0	0	0	507	487	
0	0	0	0	0	505	487	
1	0	0	0	0	504	487	
2	0	0	0	0	503	487	
3	0	0	0	0	503	487	
4	0	0	0	0	503	487	
5	0	0	0	0	502	487	
6	0	0	0	0	502	487	
7	0	0	0	0	502	487	
8	0	0	0	0	501	487	
9	0	0	0	0	500	487	
10	0	0	0	0	500	487	
11	0	0	0	0	500	487	
12	0	0	0	0	499	487	
13	0	0	0	0	499	487	
14	0	0	0	0	497	487	
15	0	0	0	0	495	487	
0	0	0	0	0	495	487	
1	0	0	0	0	494	487	
2	0	0	0	0	493	487	
3	0	0	0	0	493	487	
4	0	0	0	0	493	487	
5	0	0	0	0	494	487	
6	0	0	0	0	494	487	
7	0	0	0	0	494	487	
8	0	0	0	0	493	487	
9	0	0	0	0	492	487	
10	0	0	0	0	493	487	
11	0	0	0	0	494	487	
12	0	0	0	0	495	487	
13	0	0	0	0	495	487	
14	0	0	0	0	496	487	
15	0	0	0	0	496	487	
0	0	0	0	0	496	487	
1	0	0	0	0	496	487	
2	0	0	0	0	495	487	
3	0	0	0	0	494	487	
4	0	0	0	0	493	487	
5	0	0	0	0	493	487	
6	0	0	0	0	493	487	
7	0	0	0	0	493	487	
8	0	0	0	0	492	487	
9	0	0	0	0	493	487	
10	0	0	0	0	493	487	
11	0	0	0	0	493	487	
12	0	0	0	0	494	487	
13	0	0	0	0	495	487	
14	0	0	0	0	495	487	
15	0	0	0	0	495	487	
0	0	0	0	0	496	487	
1	0	0	0	0	497	487	
2	0	0	0	0	497	487	
3	0	0	0	0	498	487	
4	0	0	0	0	498	487	
5	0	0	0	0	498	487	
6	0	0	0	0	499	487	
7	0	0	0	0	498	487	
8	0	0	0	0	497	486	
9	0	0	0	0	497	487	
10	0	0	0	0	497	487	
11	0	0	0	0	498	487	
12	0	0	0	0	498	487	
13	0	0	0	0	498	487	
14	0	0	0	0	499	487	
15	0	0	0	0	499	487	
0	0	0	0	0	500	487	
1	0	0	0	0	500	486	
2	0	0	0	0	501	487	
3	0	0	0	0	503	487	
4	0	0	0	0	503	487	
5	0	0	0	0	503	487	
6	0	0	0	0	504	487	
7	0	0	0	0	503	487	
8	0	0	0	0	503	486	
9	0	0	0	0	503	487	
10	0	0	0	0	503	487	
11	0	0	0	0	504	487	
12	0	0	0	0	504	487	
13	0	0	0	0	504	487	
14	0	0	0	0	505	487	
15	0	0	0	0	505	487	
0	0	0	0	0	507	487	
1	0	0	0	0	507	487	
2	0	0	0	0	508	487	
3	0	0	0	0	509	487	
4	0	0	0	0	511	487	
5	0	0	0	0	512	487	
6	0	0	0	0	512	486	
7	0	0	0	0	512	487	
8	0	0	0	0	512	487	
9	0	0	0	0	512	487	
10	0	0	0	0	512	487	
11	0	0	0	0	512	487	
12	0	0	0	0	513	487	
13	0	0	0	0	513	487	
14	0	0	0	0	513	487	
15	0	0	0	0	511	487	
0	0	0	0	0	510	487	
1	0	0	0	0	509	487	
2	0	0	0	0	509	487	
3	0	0	0	0	509	487	
4	0	0	0	0	510	487	
5	0	0	0	0	511	487	
6	0	0	0	0	511	487	
7	0	0	0	0	511	487	
8	0	0	0	0	512	487	
9	0	0	0	0	512	486	
10	0	0	0	0	512	487	
11	0	0	0	0	513	487	
12	0	0	0	0	513	487	
13	0	0	0	0	514	487	
14	0	0	0	0	514	486	
15	0	0	0	0	514	487	
0	0	0	0	0	515	487	
1	0	0	0	0	515	486	
2	0	0	0	0	515	487	
3	0	0	0	0	516	486	
4	0	0	0	0	517	487	
5	0	0	0	0	517	487	
6	0	0	0	0	518	487	
7	0	0	0	0	517	487	
8	0	0	0	0	517	487	
9	0	0	0	0	517	487	
10	0	0	0	0	516	487	
11	0	0	0	0	515	486	
12	0	0	0	0	514	487	
13	0	0	0	0	514	486	
14	0	0	0	0	513	487	
15	0	0	0	0	514	487	
0	0	0	0	0	513	487	
1	0	0	0	0	512	486	
2	0	0	0	0	512	486	
3	0	0	0	0	512	486	
4	0	0	0	0	512	487	
5	0	0	0	0	512	487	
6	0	0	0	0	513	487	
7	0	0	0	0	514	486	
8	0	0	0	0	513	486	
9	0	0	0	0	513	487	
10	0	0	0	0	515	487	
11	0	0	0	0	517	487	
12	0	0	0	0	517	487	
13	0	0	0	0	518	486	
14	0	0	0	0	518	487	
15	0	0	0	0	517	487	
0	0	0	0	0	516	487	
1	0	0	0	0	515	486	
2	0	0	0	0	515	487	
3	0	0	0	0	515	487	
4	0	0	0	0	515	486	
5	0	0	0	0	515	486	
6	0	0	0	0	515	486	
7	0	0	0	0	514	486	
8	0	0	0	0	514	487	
9	0	0	0	0	513	487	
10	0	0	0	0	513	487	
11	0	0	0	0	514	487	
12	0	0	0	0	513	486	
13	0	0	0	0	512	486	
14	0	0	0	0	512	487	
15	0	0	0	0	512	486	
0	0	0	0	0	512	487	
1	0	0	0	0	512	487	
2	0	0	0	0	512	487	
3	0	0	0	0	513	486	
4	0	0	0	0	513	486	
5	0	0	0	0	512	487	
6	0	0	0	0	513	486	
7	0	0	0	0	513	487	
8	0	0	0	0	512	486	
9	0	0	0	0	512	486	
10	0	0	0	0	511	487	
11	0	0	0	0	510	487	
12	0	0	0	0	509	487	
13	0	0	0	0	508	486	
14	0	0	0	0	508	486	
15	0	0	0	0	508	486	
0	0	0	0	0	508	486	
1	0	0	0	0	508	487	
2	0	0	0	0	508	486	
3	0	0	0	0	508	486	
4	0	0	0	0	508	486	
5	0	0	0	0	508	486	
6	0	0	0	0	508	487	
7	0	0	0	0	507	486	
8	0	0	0	0	508	486	
9	0	0	0	0	508	486	
10	0	0	0	0	510	487	
11	0	0	0	0	510	487	
12	0	0	0	0	511	486	
13	0	0	0	0	511	486	
14	0	0	0	0	511	486	
15	0	0	0	0	511	486	
0	0	0	0	0	510	487	
1	0	0	0	0	508	486	
2	0	0	0	0	508	487	
3	0	0	0	0	508	486	
4	0	0	0	0	509	486	
5	0	0	0	0	509	487	
6	0	0	0	0	509	486	
7	0	0	0	0	510	486	
8	0	0	0	0	510	486	
9	0	0	0	0	511	486	
10	0	0	0	0	511	487	
11	0	0	0	0	510	486	
12	0	0	0	0	510	486	
13	0	0	0	0	510	486	
14	0	0	0	0	510	486	
15	0	0	0	0	510	486	
0	0	0	0	0	510	486	
1	0	0	0	0	508	486	
2	0	0	0	0	508	486	
3	0	0	0	0	507	486	
4	0	0	0	0	507	486	
5	0	0	0	0	507	486	
6	0	0	0	0	507	486	
7	0	0	0	0	506	486	
8	0	0	0	0	506	486	
9	0	0	0	0	505	487	
10	0	0	0	0	506	486	
11	0	0	0	0	506	487	
12	0	0	0	0	506	486	
13	0	0	0	0	508	486	
14	0	0	0	0	507	487	
15	0	0	0	0	507	486	
0	0	0	0	0	505	486	
1	0	0	0	0	504	486	
2	0	0	0	0	504	486	
3	0	0	0	0	504	487	
4	0	0	0	0	504	486	
5	0	0	0	0	505	486	
6	0	0	0	0	505	486	
7	0	0	0	0	505	486	
8	0	0	0	0	505	486	
9	0	0	0	0	506	486	
10	0	0	0	0	507	486	
11	0	0	0	0	508	486	
12	0	0	0	0	510	486	
13	0	0	0	0	510	486	
14	0	0	0	0	510	486	
15	0	0	0	0	510	486	
0	0	0	0	0	508	487	
1	0	0	0	0	507	486	
2	0	0	0	0	506	486	
3	0	0	0	0	507	486	
4	0	0	0	0	507	486	
5	0	0	0	0	505	486	
6	0	0	0	0	505	486	
7	0	0	0	0	505	486	
8	0	0	0	0	505	486	
9	0	0	0	0	505	486	
10	0	0	0	0	504	486	
11	0	0	0	0	504	486	
12	0	0	0	0	504	486	
13	0	0	0	0	505	486	
14	0	0	0	0	506	486	
15	0	0	0	0	507	486	
0	0	0	0	0	508	486	
1	0	0	0	0	509	486	
2	0	0	0	0	510	486	
3	0	0	0	0	510	486	
4	0	0	0	0	508	486	
5	0	0	0	0	508	486	
6	0	0	0	0	508	486	
7	0	0	0	0	508	486	
8	0	0	0	0	507	486	
9	0	0	0	0	507	486	
10	0	0	0	0	508	486	
11	0	0	0	0	508	486	
12	0	0	0	0	508	486	
13	0	0	0	0	509	486	
14	0	0	0	0	508	486	
15	0	0	0	0	508	486	
0	0	0	0	0	508	486	
1	0	0	0	0	508	486	
2	0	0	0	0	507	486	
3	0	0	0	0	507	486	
4	0	0	0	0	508	486	
5	0	0	0	0	509	486	
6	0	0	0	0	508	486	
7	0	0	0	0	508	486	
8	0	0	0	0	508	486	
9	0	0	0	0	508	486	
10	0	0	0	0	508	486	
11	0	0	0	0	508	486	
12	0	0	0	0	509	486	
13	0	0	0	0	510	486	
14	0	0	0	0	512	486	
15	0	0	0	0	513	486	
0	0	0	0	0	514	486	
1	0	0	0	0	514	486	
2	0	0	0	0	513	486	
3	0	0	0	0	512	486	
4	0	0	0	0	512	486	
5	0	0	0	0	512	486	
6	0	0	0	0	512	486	
7	0	0	0	0	513	486	
8	0	0	0	0	512	486	
9	0	0	0	0	512	486	
10	0	0	0	0	511	486	
11	0	0	0	0	511	486	
12	0	0	0	0	512	486	
13	0	0	0	0	513	486	
14	0	0	0	0	514	486	
15	0	0	0	0	515	486	
0	0	0	0	0	516	486	
1	0	0	0	0	517	486	
2	0	0	0	0	517	486	
3	0	0	0	0	515	486	
4	0	0	0	0	513	486	
5	0	0	0	0	513	486	
6	0	0	0	0	512	486	
7	0	0	0	0	512	486	
8	0	0	0	0	511	486	
9	0	0	0	0	511	486	
10	0	0	0	0	512	486	
11	0	0	0	0	512	486	
12	0	0	0	0	513	486	
13	0	0	0	0	515	486	
14	0	0	0	0	516	486	
15	0	0	0	0	517	486	
0	0	0	0	0	519	486	
1	0	0	0	0	521	486	
2	0	0	0	0	523	486	
3	0	0	0	0	523	486	
4	0	0	0	0	524	486	
5	0	0	0	0	525	486	
6	0	0	0	0	525	486	
7	0	0	0	0	526	486	
8	0	0	0	0	527	486	
9	0	0	0	0	527	486	
10	0	0	0	0	527	486	
11	0	0	0	0	527	486	
12	0	0	0	0	527	486	
13	0	0	0	0	526	486	
14	0	0	0	0	527	486	
15	0	0	0	0	527	486	
0	0	0	0	0	528	486	
1	0	0	0	0	529	486	
2	0	0	0	0	530	486	
3	0	0	0	0	531	486	
4	0	0	0	0	531	486	
5	0	0	0	0	533	486	
6	0	0	0	0	533	486	
7	0	0	0	0	533	486	
8	0	0	0	0	534	486	
9	0	0	0	0	535	486	
10	0	0	0	0	536	486	
11	0	0	0	0	537	486	
12	0	0	0	0	538	486	
13	0	0	0	0	540	486	
14	0	0	0	0	540	486	
15	0	0	0	0	541	486	
0	0	0	0	0	541	486	
1	0	0	0	0	542	486	
2	0	0	0	0	543	486	
3	0	0	0	0	545	486	
4	0	0	0	0	546	486	
5	0	0	0	0	547	486	
6	0	0	0	0	547	486	
7	0	0	0	0	547	486	
8	0	0	0	0	547	486	
9	0	0	0	0	545	486	
10	0	0	0	0	545	486	
11	0	0	0	0	545	486	
12	0	0	0	0	544	486	
13	0	0	0	0	543	486	
14	0	0	0	0	541	486	
15	0	0	0	0	542	486	
0	0	0	0	0	540	486	
1	0	0	0	0	539	486	
2	0	0	0	0	537	486	
3	0	0	0	0	536	486	
4	0	0	0	0	535	486	
5	0	0	0	0	534	486	
6	0	0	0	0	533	486	
7	0	0	0	0	533	486	
8	0	0	0	0	531	486	
9	0	0	0	0	530	487	
10	0	0	0	0	528	486	
11	0	0	0	0	526	486	
12	0	0	0	0	524	486	
13	0	0	0	0	524	486	
14	0	0	0	0	522	486	
15	0	0	0	0	518	486	
0	0	0	0	0	514	486	
1	0	0	0	0	511	486	
2	0	0	0	0	508	486	
3	0	0	0	0	504	486	
4	0	0	0	0	499	486	
5	0	0	0	0	496	486	
6	0	0	0	0	493	486	
7	0	0	0	0	490	486	
8	0	0	0	0	487	486	
9	0	0	0	0	486	486	
10	0	0	0	0	485	486	
11	0	0	0	0	485	486	
12	0	0	0	0	485	486	
13	0	0	0	0	486	486	
14	0	0	0	0	485	486	
15	0	0	0	0	483	486	
0	0	0	0	0	483	486	
1	0	0	0	0	481	486	
2	0	0	0	0	479	486	
3	0	0	0	0	478	486	
4	0	0	0	0	479	486	
5	0	0	0	0	478	486	
6	0	0	0	0	478	486	
7	0	0	0	0	480	486	
8	0	0	0	0	479	486	
9	0	0	0	0	479	486	
10	0	0	0	0	480	486	
11	0	0	0	0	480	486	
12	0	0	0	0	480	486	
13	0	0	0	0	481	486	
14	0	0	0	0	481	486	
15	0	0	0	0	481	486	
0	0	0	0	0	482	486	
1	0	0	0	0	483	486	
2	0	0	0	0	484	486	
3	0	0	0	0	485	486	
4	0	0	0	0	485	486	
5	0	0	0	0	485	486	
6	0	0	0	0	486	486	
7	0	0	0	0	487	486	
8	0	0	0	0	487	486	
9	0	0	0	0	487	486	
10	0	0	0	0	486	486	
11	0	0	0	0	486	486	
12	0	0	0	0	487	486	
13	0	0	0	0	487	486	
14	0	0	0	0	486	486	
15	0	0	0	0	487	486	
0	0	0	0	0	488	486	
1	0	0	0	0	488	486	
2	0	0	0	0	488	486	
3	0	0	0	0	488	486	
4	0	0	0	0	487	486	
5	0	0	0	0	486	486	
6	0	0	0	0	483	486	
7	0	0	0	0	479	486	
8	0	0	0	0	473	486	
9	0	0	0	0	469	486	
10	0	0	0	0	466	486	
11	0	0	0	0	464	486	
12	0	0	0	0	463	486	
13	0	0	0	0	463	486	
14	0	0	0	0	465	486	
15	0	0	0	0	469	486	
0	0	0	0	0	473	486	
1	0	0	0	0	477	486	
2	0	0	0	0	481	486	
3	0	0	0	0	486	486	
4	0	0	0	0	491	486	
5	0	0	0	0	499	486	
6	0	0	0	0	509	486	
7	0	0	0	0	521	486	
8	0	0	0	0	535	486	
9	0	0	0	0	550	486	
10	0	0	0	0	566	486	
11	0	0	0	0	582	486	
12	0	0	0	0	600	486	
13	0	0	0	0	620	486	
14	0	0	0	0	643	486	
15	0	0	0	0	664	486	
0	0	0	0	0	682	486	
1	0	0	0	0	701	486	
2	0	0	0	0	720	486	
3	0	0	0	0	739	486	
4	0	0	0	0	758	486	
5	0	0	0	0	775	486	
6	0	0	0	0	788	486	
7	0	0	0	0	795	486	
8	0	0	0	0	799	486	
9	0	0	0	0	799	486	
10	0	0	0	0	798	486	
11	0	0	0	0	791	486	
12	0	0	0	0	776	486	
13	0	0	0	0	752	486	
14	0	0	0	0	723	486	
15	0	0	0	0	694	486	
0	0	0	0	0	663	486	
1	0	0	0	0	633	486	
2	0	0	0	0	602	486	
3	0	0	0	0	572	486	
4	0	0	0	0	541	486	
5	0	0	0	0	513	486	
6	0	0	0	0	487	486	
7	0	0	0	0	463	486	
8	0	0	0	0	442	486	
9	0	0	0	0	424	486	
10	0	0	0	0	410	486	
11	0	0	0	0	398	486	
12	0	0	0	0	388	486	
13	0	0	0	0	381	486	
14	0	0	0	0	376	486	
15	0	0	0	0	374	486	
0	0	0	0	0	372	486	
1	0	0	0	0	372	486	
2	0	0	0	0	373	486	
3	0	0	0	0	374	486	
4	0	0	0	0	376	486	
5	0	0	0	0	379	486	
6	0	0	0	0	381	486	
7	0	0	0	0	384	486	
8	0	0	0	0	386	486	
9	0	0	0	0	390	486	
10	0	0	0	0	393	486	
11	0	0	0	0	396	486	
12	0	0	0	0	399	486	
13	0	0	0	0	403	486	
14	0	0	0	0	406	486	
15	0	0	0	0	410	486	
0	0	0	0	0	416	486	
1	0	0	0	0	421	486	
2	0	0	0	0	427	486	
3	0	0	0	0	432	486	
4	0	0	0	0	436	486	
5	0	0	0	0	442	486	
6	0	0	0	0	447	486	
7	0	0	0	0	451	486	
8	0	0	0	0	455	486	
9	0	0	0	0	457	486	
10	0	0	0	0	461	486	
11	0	0	0	0	463	486	
12	0	0	0	0	464	486	
13	0	0	0	0	464	486	
14	0	0	0	0	465	486	
15	0	0	0	0	466	486	
0	0	0	0	0	467	486	
1	0	0	0	0	467	486	
2	0	0	0	0	469	486	
3	0	0	0	0	470	486	
4	0	0	0	0	472	486	
5	0	0	0	0	472	486	
6	0	0	0	0	474	486	
7	0	0	0	0	475	486	
8	0	0	0	0	476	486	
9	0	0	0	0	478	486	
10	0	0	0	0	480	486	
11	0	0	0	0	481	486	
12	0	0	0	0	483	486	
13	0	0	0	0	485	486	
14	0	0	0	0	485	486	
15	0	0	0	0	486	486	
0	0	0	0	0	487	486	
1	0	0	0	0	487	486	
2	0	0	0	0	487	486	
3	0	0	0	0	488	486	
4	0	0	0	0	488	486	
5	0	0	0	0	487	486	
6	0	0	0	0	487	486	
7	0	0	0	0	488	486	
8	0	0	0	0	489	486	
9	0	0	0	0	490	486	
10	0	0	0	0	492	486	
11	0	0	0	0	492	486	
12	0	0	0	0	494	486	
13	0	0	0	0	494	486	
14	0	0	0	0	494	486	
15	0	0	0	0	495	486	
0	0	0	0	0	495	486	
1	0	0	0	0	495	486	
2	0	0	0	0	495	486	
3	0	0	0	0	494	486	
4	0	0	0	0	494	486	
5	0	0	0	0	494	486	
6	0	0	0	0	495	486	
7	0	0	0	0	495	486	
8	0	0	0	0	495	486	
9	0	0	0	0	497	486	
10	0	0	0	0	497	486	
11	0	0	0	0	499	486	
12	0	0	0	0	500	486	
13	0	0	0	0	500	486	
14	0	0	0	0	500	486	
15	0	0	0	0	501	486	
0	0	0	0	0	502	486	
1	0	0	0	0	503	486	
2	0	0	0	0	504	486	
3	0	0	0	0	504	486	
4	0	0	0	0	504	486	
5	0	0	0	0	504	486	
6	0	0	0	0	503	486	
7	0	0	0	0	504	486	
8	0	0	0	0	504	486	
9	0	0	0	0	504	486	
10	0	0	0	0	504	486	
11	0	0	0	0	505	486	
12	0	0	0	0	504	486	
13	0	0	0	0	505	486	
14	0	0	0	0	505	486	
15	0	0	0	0	505	486	
0	0	0	0	0	504	486	
1	0	0	0	0	504	486	
2	0	0	0	0	503	486	
3	0	0	0	0	503	486	
4	0	0	0	0	503	486	
5	0	0	0	0	503	486	
6	0	0	0	0	503	486	
7	0	0	0	0	502	486	
8	0	0	0	0	503	486	
9	0	0	0	0	503	486	
10	0	0	0	0	504	486	
11	0	0	0	0	506	486	
12	0	0	0	0	508	486	
13	0	0	0	0	509	486	
14	0	0	0	0	508	486	
15	0	0	0	0	507	486	
0	0	0	0	0	507	486	
1	0	0	0	0	508	486	
2	0	0	0	0	508	486	
3	0	0	0	0	508	486	
4	0	0	0	0	509	486	
5	0	0	0	0	509	486	
6	0	0	0	0	509	486	
7	0	0	0	0	508	486	
8	0	0	0	0	508	486	
9	0	0	0	0	508	486	
10	0	0	0	0	508	486	
11	0	0	0	0	508	486	
12	0	0	0	0	508	486	
13	0	0	0	0	510	486	
14	0	0	0	0	509	486	
15	0	0	0	0	509	486	
0	0	0	0	0	508	486	
1	0	0	0	0	507	486	
2	0	0	0	0	507	486	
3	0	0	0	0	508	486	
4	0	0	0	0	508	486	
5	0	0	0	0	509	486	
6	0	0	0	0	510	486	
7	0	0	0	0	511	486	
8	0	0	0	0	512	486	
9	0	0	0	0	512	486	
10	0	0	0	0	512	486	
11	0	0	0	0	512	486	
12	0	0	0	0	512	486	
13	0	0	0	0	512	486	
14	0	0	0	0	512	486	
15	0	0	0	0	512	486	
0	0	0	0	0	512	486	
1	0	0	0	0	512	486	
2	0	0	0	0	513	486	
3	0	0	0	0	513	486	
4	0	0	0	0	513	486	
5	0	0	0	0	513	486	
6	0	0	0	0	513	486	
7	0	0	0	0	513	486	
8	0	0	0	0	512	486	
9	0	0	0	0	511	486	
10	0	0	0	0	511	486	
11	0	0	0	0	511	486	
12	0	0	0	0	511	486	
13	0	0	0	0	511	486	
14	0	0	0	0	511	486	
15	0	0	0	0	511	486	
0	0	0	0	0	511	486	
1	0	0	0	0	511	486	
2	0	0	0	0	511	486	
3	0	0	0	0	512	486	
4	0	0	0	0	512	486	
5	0	0	0	0	513	486	
6	0	0	0	0	513	486	
7	0	0	0	0	515	486	
8	0	0	0	0	516	486	
9	0	0	0	0	517	486	
10	0	0	0	0	518	486	
11	0	0	0	0	519	486	
12	0	0	0	0	519	486	
13	0	0	0	0	519	486	
14	0	0	0	0	519	485	
15	0	0	0	0	519	486	
0	0	0	0	0	519	486	
1	0	0	0	0	520	486	
2	0	0	0	0	520	486	
3	0	0	0	0	521	486	
4	0	0	0	0	521	486	
5	0	0	0	0	522	486	
6	0	0	0	0	522	486	
7	0	0	0	0	522	486	
8	0	0	0	0	523	485	
9	0	0	0	0	523	486	
10	0	0	0	0	523	486	
11	0	0	0	0	523	486	
12	0	0	0	0	524	486	
13	0	0	0	0	524	486	
14	0	0	0	0	524	486	
15	0	0	0	0	524	486	
0	0	0	0	0	523	486	
1	0	0	0	0	524	486	
2	0	0	0	0	524	486	
3	0	0	0	0	525	486	
4	0	0	0	0	526	486	
5	0	0	0	0	527	486	
6	0	0	0	0	527	486	
7	0	0	0	0	527	485	
8	0	0	0	0	527	486	
9	0	0	0	0	528	485	
10	0	0	0	0	529	486	
11	0	0	0	0	529	486	
12	0	0	0	0	528	486	
13	0	0	0	0	529	486	
14	0	0	0	0	531	486	
15	0	0	0	0	531	485	
0	0	0	0	0	530	486	
1	0	0	0	0	529	486	
2	0	0	0	0	529	486	
3	0	0	0	0	529	486	
4	0	0	0	0	529	486	
5	0	0	0	0	529	485	
6	0	0	0	0	530	486	
7	0	0	0	0	531	485	
8	0	0	0	0	530	486	
9	0	0	0	0	530	486	
10	0	0	0	0	530	486	
11	0	0	0	0	530	486	
12	0	0	0	0	529	486	
13	0	0	0	0	529	486	
14	0	0	0	0	528	485	
15	0	0	0	0	528	486	
0	0	0	0	0	528	485	
1	0	0	0	0	528	485	
2	0	0	0	0	529	486	
3	0	0	0	0	529	485	
4	0	0	0	0	529	485	
5	0	0	0	0	529	485	
6	0	0	0	0	530	485	
7	0	0	0	0	530	486	
8	0	0	0	0	529	486	
9	0	0	0	0	529	486	
10	0	0	0	0	528	486	
11	0	0	0	0	527	486	
12	0	0	0	0	527	486	
13	0	0	0	0	526	486	
14	0	0	0	0	525	485	
15	0	0	0	0	524	486	
0	0	0	0	0	523	486	
1	0	0	0	0	521	486	
2	0	0	0	0	520	486	
3	0	0	0	0	521	486	
4	0	0	0	0	521	485	
5	0	0	0	0	521	485	
6	0	0	0	0	522	486	
7	0	0	0	0	522	485	
8	0	0	0	0	520	486	
9	0	0	0	0	519	485	
10	0	0	0	0	518	486	
11	0	0	0	0	518	486	
12	0	0	0	0	517	486	
13	0	0	0	0	516	486	
14	0	0	0	0	516	486	
15	0	0	0	0	516	485	
0	0	0	0	0	516	486	
1	0	0	0	0	515	485	
2	0	0	0	0	515	485	
3	0	0	0	0	514	486	
4	0	0	0	0	515	486	
5	0	0	0	0	515	486	
6	0	0	0	0	515	485	
7	0	0	0	0	514	485	
8	0	0	0	0	512	485	
9	0	0	0	0	512	485	
10	0	0	0	0	512	485	
11	0	0	0	0	511	485	
12	0	0	0	0	511	485	
13	0	0	0	0	509	485	
14	0	0	0	0	509	486	
15	0	0	0	0	509	486	
0	0	0	0	0	508	485	
1	0	0	0	0	508	485	
2	0	0	0	0	508	485	
3	0	0	0	0	507	485	
4	0	0	0	0	505	486	
5	0	0	0	0	505	485	
6	0	0	0	0	504	485	
7	0	0	0	0	504	485	
8	0	0	0	0	504	485	
9	0	0	0	0	503	486	
10	0	0	0	0	502	485	
11	0	0	0	0	500	485	
12	0	0	0	0	499	485	
13	0	0	0	0	498	486	
14	0	0	0	0	497	486	
15	0	0	0	0	497	485	
0	0	0	0	0	496	485	
1	0	0	0	0	495	485	
2	0	0	0	0	495	485	
3	0	0	0	0	495	486	
4	0	0	0	0	495	485	
5	0	0	0	0	494	485	
6	0	0	0	0	493	485	
7	0	0	0	0	493	485	
8	0	0	0	0	493	486	
9	0	0	0	0	493	485	
10	0	0	0	0	492	486	
11	0	0	0	0	492	485	
12	0	0	0	0	490	485	
13	0	0	0	0	490	486	
14	0	0	0	0	489	485	
15	0	0	0	0	491	485	
0	0	0	0	0	491	485	
1	0	0	0	0	492	486	
2	0	0	0	0	492	486	
3	0	0	0	0	492	485	
4	0	0	0	0	492	485	
5	0	0	0	0	491	485	
6	0	0	0	0	491	485	
7	0	0	0	0	491	486	
8	0	0	0	0	490	486	
9	0	0	0	0	490	485	
10	0	0	0	0	489	485	
11	0	0	0	0	490	485	
12	0	0	0	0	491	486	
13	0	0	0	0	491	486	
14	0	0	0	0	491	485	
15	0	0	0	0	490	486	
0	0	0	0	0	490	485	
1	0	0	0	0	491	486	
2	0	0	0	0	491	485	
3	0	0	0	0	491	485	
4	0	0	0	0	491	486	
5	0	0	0	0	491	485	
6	0	0	0	0	492	486	
7	0	0	0	0	492	485	
8	0	0	0	0	492	485	
9	0	0	0	0	492	485	
10	0	0	0	0	492	485	
11	0	0	0	0	492	486	
12	0	0	0	0	492	485	
13	0	0	0	0	494	485	
14	0	0	0	0	494	485	
15	0	0	0	0	494	485	
0	0	0	0	0	494	485	
1	0	0	0	0	494	485	
2	0	0	0	0	495	485	
3	0	0	0	0	495	485	
4	0	0	0	0	496	485	
5	0	0	0	0	495	485	
6	0	0	0	0	495	485	
7	0	0	0	0	496	485	
8	0	0	0	0	498	485	
9	0	0	0	0	498	485	
10	0	0	0	0	500	486	
11	0	0	0	0	500	485	
12	0	0	0	0	501	485	
13	0	0	0	0	501	485	
14	0	0	0	0	502	485	
15	0	0	0	0	502	485	
0	0	0	0	0	503	485	
1	0	0	0	0	503	486	
2	0	0	0	0	503	485	
3	0	0	0	0	504	485	
4	0	0	0	0	504	486	
5	0	0	0	0	504	485	
6	0	0	0	0	505	485	
7	0	0	0	0	505	485	
8	0	0	0	0	505	485	
9	0	0	0	0	506	486	
10	0	0	0	0	506	485	
11	0	0	0	0	507	485	
12	0	0	0	0	506	485	
13	0	0	0	0	506	485	
14	0	0	0	0	506	485	
15	0	0	0	0	506	485	
0	0	0	0	0	506	485	
1	0	0	0	0	506	485	
2	0	0	0	0	506	485	
3	0	0	0	0	507	485	
4	0	0	0	0	507	485	
5	0	0	0	0	507	485	
6	0	0	0	0	505	485	
7	0	0	0	0	505	485	
8	0	0	0	0	504	486	
9	0	0	0	0	504	485	
10	0	0	0	0	504	485	
11	0	0	0	0	505	485	
12	0	0	0	0	506	486	
13	0	0	0	0	507	485	
14	0	0	0	0	508	485	
15	0	0	0	0	509	485	
0	0	0	0	0	510	485	
1	0	0	0	0	509	485	
2	0	0	0	0	510	485	
3	0	0	0	0	510	485	
4	0	0	0	0	510	485	
5	0	0	0	0	511	485	
6	0	0	0	0	512	485	
7	0	0	0	0	512	486	
8	0	0	0	0	513	485	
9	0	0	0	0	513	486	
10	0	0	0	0	512	485	
11	0	0	0	0	513	485	
12	0	0	0	0	513	485	
13	0	0	0	0	513	485	
14	0	0	0	0	513	485	
15	0	0	0	0	513	485	
0	0	0	0	0	513	485	
1	0	0	0	0	513	486	
2	0	0	0	0	514	485	
3	0	0	0	0	514	485	
4	0	0	0	0	513	486	
5	0	0	0	0	513	485	
6	0	0	0	0	513	485	
7	0	0	0	0	513	485	
8	0	0	0	0	513	485	
9	0	0	0	0	513	485	
10	0	0	0	0	513	485	
11	0	0	0	0	514	485	
12	0	0	0	0	513	485	
13	0	0	0	0	513	485	
14	0	0	0	0	512	485	
15	0	0	0	0	511	485	
0	0	0	0	0	511	485	
1	0	0	0	0	511	485	
2	0	0	0	0	510	485	
3	0	0	0	0	510	485	
4	0	0	0	0	511	485	
5	0	0	0	0	511	485	
6	0	0	0	0	511	485	
7	0	0	0	0	512	485	
8	0	0	0	0	511	485	
9	0	0	0	0	511	485	
10	0	0	0	0	511	485	
11	0	0	0	0	511	485	
12	0	0	0	0	511	485	
13	0	0	0	0	512	485	
14	0	0	0	0	512	485	
15	0	0	0	0	512	485	
0	0	0	0	0	512	485	
1	0	0	0	0	512	485	
2	0	0	0	0	513	485	
3	0	0	0	0	515	485	
4	0	0	0	0	515	485	
5	0	0	0	0	513	485	
6	0	0	0	0	512	485	
7	0	0	0	0	510	485	
8	0	0	0	0	509	485	
9	0	0	0	0	509	485	
10	0	0	0	0	509	485	
11	0	0	0	0	509	485	
12	0	0	0	0	509	485	
13	0	0	0	0	508	485	
14	0	0	0	0	508	485	
15	0	0	0	0	508	485	
0	0	0	0	0	509	485	
1	0	0	0	0	509	485	
2	0	0	0	0	511	485	
3	0	0	0	0	512	485	
4	0	0	0	0	513	485	
5	0	0	0	0	514	485	
6	0	0	0	0	514	485	
7	0	0	0	0	513	485	
8	0	0	0	0	513	485	
9	0	0	0	0	512	485	
10	0	0	0	0	512	485	
11	0	0	0	0	512	485	
12	0	0	0	0	512	485	
13	0	0	0	0	512	485	
14	0	0	0	0	511	485	
15	0	0	0	0	511	485	
0	0	0	0	0	511	485	
1	0	0	0	0	510	485	
2	0	0	0	0	510	485	
3	0	0	0	0	509	485	
4	0	0	0	0	508	485	
5	0	0	0	0	508	485	
6	0	0	0	0	510	485	
7	0	0	0	0	510	485	
8	0	0	0	0	511	485	
9	0	0	0	0	511	485	
10	0	0	0	0	511	485	
11	0	0	0	0	511	485	
12	0	0	0	0	511	485	
13	0	0	0	0	511	485	
14	0	0	0	0	511	485	
15	0	0	0	0	511	485	
0	0	0	0	0	511	485	
1	0	0	0	0	511	485	
2	0	0	0	0	511	485	
3	0	0	0	0	510	485	
4	0	0	0	0	511	485	
5	0	0	0	0	511	485	
6	0	0	0	0	511	485	
7	0	0	0	0	511	485	
8	0	0	0	0	511	485	
9	0	0	0	0	511	485	
10	0	0	0	0	511	485	
11	0	0	0	0	511	485	
12	0	0	0	0	510	485	
13	0	0	0	0	510	485	
14	0	0	0	0	509	485	
15	0	0	0	0	510	485	
0	0	0	0	0	510	485	
1	0	0	0	0	511	485	
2	0	0	0	0	510	485	
3	0	0	0	0	510	485	
4	0	0	0	0	510	485	
5	0	0	0	0	510	485	
6	0	0	0	0	510	485	
7	0	0	0	0	510	485	
8	0	0	0	0	510	485	
9	0	0	0	0	510	485	
10	0	0	0	0	511	485	
11	0	0	0	0	510	485	
12	0	0	0	0	510	485	
13	0	0	0	0	509	485	
14	0	0	0	0	510	485	
15	0	0	0	0	510	485	
0	0	0	0	0	509	485	
1	0	0	0	0	510	485	
2	0	0	0	0	510	485	
3	0	0	0	0	510	485	
4	0	0	0	0	511	485	
5	0	0	0	0	511	485	
6	0	0	0	0	512	485	
7	0	0	0	0	512	485	
8	0	0	0	0	513	485	
9	0	0	0	0	512	485	
10	0	0	0	0	513	485	
11	0	0	0	0	513	485	
12	0	0	0	0	512	485	
13	0	0	0	0	513	485	
14	0	0	0	0	513	485	
15	0	0	0	0	512	485	
0	0	0	0	0	512	485	
1	0	0	0	0	512	485	
2	0	0	0	0	511	485	
3	0	0	0	0	511	485	
4	0	0	0	0	510	485	
5	0	0	0	0	509	485	
6	0	0	0	0	510	485	
7	0	0	0	0	511	485	
8	0	0	0	0	510	485	
9	0	0	0	0	508	485	
10	0	0	0	0	509	485	
11	0	0	0	0	509	485	
12	0	0	0	0	509	485	
13	0	0	0	0	510	485	
14	0	0	0	0	510	485	
15	0	0	0	0	510	485	
0	0	0	0	0	510	485	
1	0	0	0	0	510	485	
2	0	0	0	0	511	485	
3	0	0	0	0	510	485	
4	0	0	0	0	511	485	
5	0	0	0	0	511	485	
6	0	0	0	0	511	485	
7	0	0	0	0	511	485	
8	0	0	0	0	511	485	
9	0	0	0	0	510	485	
10	0	0	0	0	510	485	
11	0	0	0	0	510	485	
12	0	0	0	0	510	485	
13	0	0	0	0	509	485	
14	0	0	0	0	510	485	
15	0	0	0	0	510	485	
0	0	0	0	0	510	484	
1	0	0	0	0	510	485	
2	0	0	0	0	511	485	
3	0	0	0	0	511	485	
4	0	0	0	0	512	485	
5	0	0	0	0	511	485	
6	0	0	0	0	511	485	
7	0	0	0	0	511	485	
8	0	0	0	0	511	485	
9	0	0	0	0	511	485	
10	0	0	0	0	510	485	
11	0	0	0	0	508	485	
12	0	0	0	0	508	485	
13	0	0	0	0	509	485	
14	0	0	0	0	510	485	
15	0	0	0	0	509	485	
0	0	0	0	0	510	485	
1	0	0	0	0	510	485	
2	0	0	0	0	509	485	
3	0	0	0	0	508	485	
4	0	0	0	0	508	485	
5	0	0	0	0	510	485	
6	0	0	0	0	511	485	
7	0	0	0	0	512	485	
8	0	0	0	0	513	485	
9	0	0	0	0	514	485	
10	0	0	0	0	515	485	
11	0	0	0	0	516	485	
12	0	0	0	0	514	485	
13	0	0	0	0	515	485	
14	0	0	0	0	515	485	
15	0	0	0	0	515	485	
0	0	0	0	0	514	485	
1	0	0	0	0	513	485	
2	0	0	0	0	513	485	
3	0	0	0	0	515	485	
4	0	0	0	0	515	485	
5	0	0	0	0	516	485	
6	0	0	0	0	516	485	
7	0	0	0	0	517	485	
8	0	0	0	0	518	485	
9	0	0	0	0	519	485	
10	0	0	0	0	522	485	
11	0	0	0	0	524	485	
12	0	0	0	0	525	484	
13	0	0	0	0	526	485	
14	0	0	0	0	526	485	
15	0	0	0	0	526	485	
0	0	0	0	0	526	485	
1	0	0	0	0	527	485	
2	0	0	0	0	527	485	
3	0	0	0	0	527	485	
4	0	0	0	0	527	485	
5	0	0	0	0	526	485	
6	0	0	0	0	527	485	
7	0	0	0	0	527	485	
8	0	0	0	0	529	485	
9	0	0	0	0	529	485	
10	0	0	0	0	529	485	
11	0	0	0	0	529	485	
12	0	0	0	0	531	485	
13	0	0	0	0	530	485	
14	0	0	0	0	530	485	
15	0	0	0	0	532	485	
0	0	0	0	0	531	485	
1	0	0	0	0	532	485	
2	0	0	0	0	531	485	
3	0	0	0	0	531	485	
4	0	0	0	0	530	485	
5	0	0	0	0	529	485	
6	0	0	0	0	529	485	
7	0	0	0	0	529	485	
8	0	0	0	0	531	485	
9	0	0	0	0	532	485	
10	0	0	0	0	534	485	
11	0	0	0	0	537	484	
12	0	0	0	0	539	485	
13	0	0	0	0	540	485	
14	0	0	0	0	542	485	
15	0	0	0	0	544	485	
0	0	0	0	0	545	485	
1	0	0	0	0	547	485	
2	0	0	0	0	547	485	
3	0	0	0	0	546	485	
4	0	0	0	0	545	484	
5	0	0	0	0	543	485	
6	0	0	0	0	543	484	
7	0	0	0	0	543	485	
8	0	0	0	0	542	485	
9	0	0	0	0	540	485	
10	0	0	0	0	537	485	
11	0	0	0	0	536	485	
12	0	0	0	0	535	485	
13	0	0	0	0	533	485	
14	0	0	0	0	532	484	
15	0	0	0	0	531	485	
0	0	0	0	0	530	485	
1	0	0	0	0	529	485	
2	0	0	0	0	528	485	
3	0	0	0	0	526	485	
4	0	0	0	0	523	484	
5	0	0	0	0	521	485	
6	0	0	0	0	520	485	
7	0	0	0	0	518	484	
8	0	0	0	0	516	485	
9	0	0	0	0	513	484	
10	0	0	0	0	510	485	
11	0	0	0	0	508	485	
12	0	0	0	0	505	485	
13	0	0	0	0	502	485	
14	0	0	0	0	498	485	
15	0	0	0	0	495	485	
0	0	0	0	0	492	485	
1	0	0	0	0	490	484	
2	0	0	0	0	488	485	
3	0	0	0	0	487	485	
4	0	0	0	0	484	485	
5	0	0	0	0	482	485	
6	0	0	0	0	480	484	
7	0	0	0	0	479	485	
8	0	0	0	0	479	485	
9	0	0	0	0	479	485	
10	0	0	0	0	480	485	
11	0	0	0	0	481	485	
12	0	0	0	0	482	485	
13	0	0	0	0	482	485	
14	0	0	0	0	482	485	
15	0	0	0	0	481	484	
0	0	0	0	0	480	485	
1	0	0	0	0	479	485	
2	0	0	0	0	480	485	
3	0	0	0	0	480	485	
4	0	0	0	0	480	485	
5	0	0	0	0	479	485	
6	0	0	0	0	479	485	
7	0	0	0	0	478	485	
8	0	0	0	0	478	485	
9	0	0	0	0	479	485	
10	0	0	0	0	480	485	
11	0	0	0	0	481	484	
12	0	0	0	0	481	485	
13	0	0	0	0	483	484	
14	0	0	0	0	484	485	
15	0	0	0	0	485	484	
0	0	0	0	0	485	484	
1	0	0	0	0	486	484	
2	0	0	0	0	487	485	
3	0	0	0	0	488	485	
4	0	0	0	0	487	484	
5	0	0	0	0	488	484	
6	0	0	0	0	488	485	
7	0	0	0	0	489	485	
8	0	0	0	0	489	485	
9	0	0	0	0	489	485	
10	0	0	0	0	489	484	
11	0	0	0	0	489	484	
12	0	0	0	0	489	485	
13	0	0	0	0	487	485	
14	0	0	0	0	484	484	
15	0	0	0	0	482	484	
0	0	0	0	0	479	484	
1	0	0	0	0	476	485	
2	0	0	0	0	472	484	
3	0	0	0	0	469	485	
4	0	0	0	0	466	485	
5	0	0	0	0	467	484	
6	0	0	0	0	468	484	
7	0	0	0	0	470	485	
8	0	0	0	0	473	484	
9	0	0	0	0	477	485	
10	0	0	0	0	482	484	
11	0	0	0	0	487	485	
12	0	0	0	0	492	484	
13	0	0	0	0	496	485	
14	0	0	0	0	503	484	
15	0	0	0	0	512	484	
0	0	0	0	0	524	485	
1	0	0	0	0	537	484	
2	0	0	0	0	550	485	
3	0	0	0	0	566	484	
4	0	0	0	0	584	484	
5	0	0	0	0	604	485	
6	0	0	0	0	625	484	
7	0	0	0	0	646	484	
8	0	0	0	0	667	484	
9	0	0	0	0	688	485	
10	0	0	0	0	707	485	
11	0	0	0	0	728	484	
12	0	0	0	0	748	484	
13	0	0	0	0	768	484	
14	0	0	0	0	785	485	
15	0	0	0	0	799	484	
0	0	0	0	0	807	484	
1	0	0	0	0	810	485	
2	0	0	0	0	811	484	
3	0	0	0	0	809	484	
4	0	0	0	0	801	484	
5	0	0	0	0	786	484	
6	0	0	0	0	761	484	
7	0	0	0	0	730	484	
8	0	0	0	0	696	484	
9	0	0	0	0	662	484	
10	0	0	0	0	628	484	
11	0	0	0	0	596	484	
12	0	0	0	0	563	484	
13	0	0	0	0	531	484	
14	0	0	0	0	500	484	
15	0	0	0	0	471	484	
0	0	0	0	0	447	484	
1	0	0	0	0	427	484	
2	0	0	0	0	409	484	
3	0	0	0	0	396	484	
4	0	0	0	0	385	484	
5	0	0	0	0	380	484	
6	0	0	0	0	376	484	
7	0	0	0	0	375	484	
8	0	0	0	0	375	484	
9	0	0	0	0	376	484	
10	0	0	0	0	376	484	
11	0	0	0	0	378	484	
12	0	0	0	0	380	484	
13	0	0	0	0	381	484	
14	0	0	0	0	381	484	
15	0	0	0	0	384	485	
0	0	0	0	0	385	484	
1	0	0	0	0	388	484	
2	0	0	0	0	392	485	
3	0	0	0	0	396	484	
4	0	0	0	0	399	484	
5	0	0	0	0	403	484	
6	0	0	0	0	408	484	
7	0	0	0	0	412	484	
8	0	0	0	0	417	484	
9	0	0	0	0	421	484	
10	0	0	0	0	425	484	
11	0	0	0	0	430	484	
12	0	0	0	0	436	484	
13	0	0	0	0	441	484	
14	0	0	0	0	445	484	
15	0	0	0	0	448	484	
0	0	0	0	0	451	484	
1	0	0	0	0	454	484	
2	0	0	0	0	456	484	
3	0	0	0	0	458	484	
4	0	0	0	0	460	484	
5	0	0	0	0	462	484	
6	0	0	0	0	463	484	
7	0	0	0	0	465	484	
8	0	0	0	0	467	484	
9	0	0	0	0	467	484	
10	0	0	0	0	469	484	
11	0	0	0	0	470	484	
12	0	0	0	0	471	484	
13	0	0	0	0	473	484	
14	0	0	0	0	476	484	
15	0	0	0	0	477	484	
0	0	0	0	0	479	484	
1	0	0	0	0	480	484	
2	0	0	0	0	482	484	
3	0	0	0	0	482	484	
4	0	0	0	0	480	484	
5	0	0	0	0	480	484	
6	0	0	0	0	481	484	
7	0	0	0	0	482	484	
8	0	0	0	0	483	484	
9	0	0	0	0	483	484	
10	0	0	0	0	483	484	
11	0	0	0	0	484	484	
12	0	0	0	0	485	484	
13	0	0	0	0	485	484	
14	0	0	0	0	486	484	
15	0	0	0	0	486	484	
0	0	0	0	0	484	484	
1	0	0	0	0	484	484	
2	0	0	0	0	485	484	
3	0	0	0	0	485	484	
4	0	0	0	0	485	484	
5	0	0	0	0	486	484	
6	0	0	0	0	487	484	
7	0	0	0	0	487	484	
8	0	0	0	0	488	484	
9	0	0	0	0	490	484	
10	0	0	0	0	491	484	
11	0	0	0	0	491	484	
12	0	0	0	0	491	484	
13	0	0	0	0	491	484	
14	0	0	0	0	491	484	
15	0	0	0	0	492	484	
0	0	0	0	0	492	484	
1	0	0	0	0	492	484	
2	0	0	0	0	493	484	
3	0	0	0	0	493	484	
4	0	0	0	0	492	484	
5	0	0	0	0	492	484	
6	0	0	0	0	492	484	
7	0	0	0	0	493	484	
8	0	0	0	0	495	484	
9	0	0	0	0	495	484	
10	0	0	0	0	496	484	
11	0	0	0	0	496	484	
12	0	0	0	0	497	484	
13	0	0	0	0	497	484	
14	0	0	0	0	498	484	
15	0	0	0	0	499	484	
0	0	0	0	0	499	484	
1	0	0	0	0	499	484	
2	0	0	0	0	499	484	
3	0	0	0	0	498	484	
4	0	0	0	0	498	484	
5	0	0	0	0	498	484	
6	0	0	0	0	499	484	
7	0	0	0	0	499	484	
8	0	0	0	0	501	484	
9	0	0	0	0	500	484	
10	0	0	0	0	501	484	
11	0	0	0	0	502	484	
12	0	0	0	0	501	484	
13	0	0	0	0	501	484	
14	0	0	0	0	500	484	
15	0	0	0	0	500	484	
0	0	0	0	0	500	484	
1	0	0	0	0	499	484	
2	0	0	0	0	499	484	
3	0	0	0	0	497	484	
4	0	0	0	0	496	484	
5	0	0	0	0	497	484	
6	0	0	0	0	498	484	
7	0	0	0	0	499	484	
8	0	0	0	0	499	484	
9	0	0	0	0	500	484	
10	0	0	0	0	501	484	
11	0	0	0	0	501	484	
12	0	0	0	0	502	484	
13	0	0	0	0	503	484	
14	0	0	0	0	503	484	
15	0	0	0	0	502	484	
0	0	0	0	0	502	484	
1	0	0	0	0	503	484	
2	0	0	0	0	503	484	
3	0	0	0	0	503	484	
4	0	0	0	0	504	484	
5	0	0	0	0	505	484	
6	0	0	0	0	506	484	
7	0	0	0	0	507	484	
8	0	0	0	0	506	484	
9	0	0	0	0	502	484	
10	0	0	0	0	500	484	
11	0	0	0	0	500	484	
12	0	0	0	0	498	484	
13	0	0	0	0	497	484	
14	0	0	0	0	498	484	
15	0	0	0	0	497	484	
0	0	0	0	0	496	484	
1	0	0	0	0	497	484	
2	0	0	0	0	498	484	
3	0	0	0	0	498	484	
4	0	0	0	0	500	484	
5	0	0	0	0	502	484	
6	0	0	0	0	503	484	
7	0	0	0	0	504	484	
8	0	0	0	0	505	484	
9	0	0	0	0	507	484	
10	0	0	0	0	509	484	
11	0	0	0	0	510	484	
12	0	0	0	0	511	484	
13	0	0	0	0	511	484	
14	0	0	0	0	510	484	
15	0	0	0	0	508	484	
0	0	0	0	0	505	484	
1	0	0	0	0	503	484	
2	0	0	0	0	502	484	
3	0	0	0	0	501	484	
4	0	0	0	0	500	484	
5	0	0	0	0	500	484	
6	0	0	0	0	500	484	
7	0	0	0	0	501	484	
8	0	0	0	0	503	484	
9	0	0	0	0	503	484	
10	0	0	0	0	503	484	
11	0	0	0	0	504	484	
12	0	0	0	0	504	484	
13	0	0	0	0	504	484	
14	0	0	0	0	505	484	
15	0	0	0	0	507	484	
0	0	0	0	0	507	484	
1	0	0	0	0	509	484	
2	0	0	0	0	511	484	
3	0	0	0	0	513	484	
4	0	0	0	0	513	484	
5	0	0	0	0	512	484	
6	0	0	0	0	512	484	
7	0	0	0	0	512	484	
8	0	0	0	0	510	484	
9	0	0	0	0	509	484	
10	0	0	0	0	508	484	
11	0	0	0	0	507	484	
12	0	0	0	0	506	484	
13	0	0	0	0	507	484	
14	0	0	0	0	507	484	
15	0	0	0	0	509	484	
0	0	0	0	0	510	484	
1	0	0	0	0	511	484	
2	0	0	0	0	511	484	
3	0	0	0	0	512	484	
4	0	0	0	0	512	484	
5	0	0	0	0	514	484	
6	0	0	0	0	515	484	
7	0	0	0	0	517	484	
8	0	0	0	0	517	484	
9	0	0	0	0	518	484	
10	0	0	0	0	519	484	
11	0	0	0	0	520	484	
12	0	0	0	0	521	484	
13	0	0	0	0	519	484	
14	0	0	0	0	521	484	
15	0	0	0	0	520	484	
0	0	0	0	0	520	484	
1	0	0	0	0	519	484	
2	0	0	0	0	519	484	
3	0	0	0	0	518	484	
4	0	0	0	0	519	484	
5	0	0	0	0	521	484	
6	0	0	0	0	522	484	
7	0	0	0	0	522	484	
8	0	0	0	0	521	484	
9	0	0	0	0	520	484	
10	0	0	0	0	521	484	
11	0	0	0	0	519	484	
12	0	0	0	0	520	484	
13	0	0	0	0	520	484	
14	0	0	0	0	520	484	
15	0	0	0	0	521	484	
0	0	0	0	0	522	484	
1	0	0	0	0	521	484	
2	0	0	0	0	521	484	
3	0	0	0	0	520	484	
4	0	0	0	0	521	484	
5	0	0	0	0	523	484	
6	0	0	0	0	521	484	
7	0	0	0	0	519	484	
8	0	0	0	0	519	484	
9	0	0	0	0	517	484	
10	0	0	0	0	517	484	
11	0	0	0	0	516	484	
12	0	0	0	0	517	484	
13	0	0	0	0	517	484	
14	0	0	0	0	518	484	
15	0	0	0	0	518	484	
0	0	0	0	0	517	484	
1	0	0	0	0	517	484	
2	0	0	0	0	518	484	
3	0	0	0	0	518	484	
4	0	0	0	0	516	484	
5	0	0	0	0	514	484	
6	0	0	0	0	513	484	
7	0	0	0	0	514	484	
8	0	0	0	0	513	484	
9	0	0	0	0	513	484	
10	0	0	0	0	512	484	
11	0	0	0	0	513	484	
12	0	0	0	0	513	484	
13	0	0	0	0	513	484	
14	0	0	0	0	512	484	
15	0	0	0	0	512	484	
0	0	0	0	0	512	484	
1	0	0	0	0	512	484	
2	0	0	0	0	512	484	
3	0	0	0	0	512	484	
4	0	0	0	0	512	484	
5	0	0	0	0	512	484	
6	0	0	0	0	512	484	
7	0	0	0	0	511	484	
8	0	0	0	0	510	484	
9	0	0	0	0	508	484	
10	0	0	0	0	508	484	
11	0	0	0	0	508	484	
12	0	0	0	0	508	484	
13	0	0	0	0	508	484	
14	0	0	0	0	507	484	
15	0	0	0	0	506	484	
0	0	0	0	0	506	484	
1	0	0	0	0	504	484	
2	0	0	0	0	504	484	
3	0	0	0	0	504	484	
4	0	0	0	0	502	484	
5	0	0	0	0	501	484	
6	0	0	0	0	499	484	
7	0	0	0	0	499	484	
8	0	0	0	0	499	484	
9	0	0	0	0	499	484	
10	0	0	0	0	498	484	
11	0	0	0	0	497	484	
12	0	0	0	0	497	484	
13	0	0	0	0	497	484	
14	0	0	0	0	496	484	
15	0	0	0	0	495	484	
0	0	0	0	0	495	484	
1	0	0	0	0	494	484	
2	0	0	0	0	494	484	
3	0	0	0	0	493	484	
4	0	0	0	0	491	484	
5	0	0	0	0	490	484	
6	0	0	0	0	490	484	
7	0	0	0	0	490	484	
8	0	0	0	0	490	484	
9	0	0	0	0	489	484	
10	0	0	0	0	490	484	
11	0	0	0	0	490	484	
12	0	0	0	0	489	484	
13	0	0	0	0	488	484	
14	0	0	0	0	487	484	
15	0	0	0	0	487	484	
0	0	0	0	0	488	484	
1	0	0	0	0	488	484	
2	0	0	0	0	487	484	
3	0	0	0	0	487	484	
4	0	0	0	0	487	484	
5	0	0	0	0	486	484	
6	0	0	0	0	486	484	
7	0	0	0	0	486	484	
8	0	0	0	0	485	484	
9	0	0	0	0	485	484	
10	0	0	0	0	485	484	
11	0	0	0	0	486	484	
12	0	0	0	0	486	484	
13	0	0	0	0	487	484	
14	0	0	0	0	487	484	
15	0	0	0	0	489	484	
0	0	0	0	0	491	484	
1	0	0	0	0	492	484	
2	0	0	0	0	492	484	
3	0	0	0	0	492	484	
4	0	0	0	0	492	484	
5	0	0	0	0	491	484	
6	0	0	0	0	490	484	
7	0	0	0	0	488	484	
8	0	0	0	0	487	484	
9	0	0	0	0	489	484	
10	0	0	0	0	488	484	
11	0	0	0	0	489	484	
12	0	0	0	0	490	484	
13	0	0	0	0	490	484	
14	0	0	0	0	491	484	
15	0	0	0	0	492	484	
0	0	0	0	0	492	484	
1	0	0	0	0	491	484	
2	0	0	0	0	492	484	
3	0	0	0	0	493	484	
4	0	0	0	0	493	484	
5	0	0	0	0	494	484	
6	0	0	0	0	495	484	
7	0	0	0	0	494	484	
8	0	0	0	0	495	484	
9	0	0	0	0	494	484	
10	0	0	0	0	493	484	
11	0	0	0	0	493	484	
12	0	0	0	0	494	484	
13	0	0	0	0	494	484	
14	0	0	0	0	493	484	
15	0	0	0	0	493	484	
0	0	0	0	0	493	484	
1	0	0	0	0	494	484	
2	0	0	0	0	495	484	
3	0	0	0	0	496	484	
4	0	0	0	0	496	484	
5	0	0	0	0	496	484	
6	0	0	0	0	496	484	
7	0	0	0	0	498	484	
8	0	0	0	0	498	484	
9	0	0	0	0	498	484	
10	0	0	0	0	500	484	
11	0	0	0	0	501	484	
12	0	0	0	0	500	484	
13	0	0	0	0	500	484	
14	0	0	0	0	501	484	
15	0	0	0	0	502	484	
0	0	0	0	0	502	484	
1	0	0	0	0	501	484	
2	0	0	0	0	502	484	
3	0	0	0	0	502	484	
4	0	0	0	0	503	484	
5	0	0	0	0	504	484	
6	0	0	0	0	503	484	
7	0	0	0	0	504	484	
8	0	0	0	0	505	484	
9	0	0	0	0	506	484	
10	0	0	0	0	506	484	
11	0	0	0	0	507	484	
12	0	0	0	0	507	484	
13	0	0	0	0	507	484	
14	0	0	0	0	507	484	
15	0	0	0	0	507	484	
0	0	0	0	0	506	484	
1	0	0	0	0	507	484	
2	0	0	0	0	507	484	
3	0	0	0	0	506	484	
4	0	0	0	0	504	484	
5	0	0	0	0	504	484	
6	0	0	0	0	504	484	
7	0	0	0	0	504	484	
8	0	0	0	0	504	484	
9	0	0	0	0	505	484	
10	0	0	0	0	505	484	
11	0	0	0	0	507	484	
12	0	0	0	0	507	484	
13	0	0	0	0	508	484	
14	0	0	0	0	509	484	
15	0	0	0	0	509	484	
0	0	0	0	0	509	484	
1	0	0	0	0	510	484	
2	0	0	0	0	510	484	
3	0	0	0	0	512	484	
4	0	0	0	0	512	484	
5	0	0	0	0	511	484	
6	0	0	0	0	511	484	
7	0	0	0	0	511	484	
8	0	0	0	0	511	484	
9	0	0	0	0	510	484	
10	0	0	0	0	510	484	
11	0	0	0	0	511	484	
12	0	0	0	0	512	484	
13	0	0	0	0	513	484	
14	0	0	0	0	513	484	
15	0	0	0	0	512	484	
0	0	0	0	0	512	484	
1	0	0	0	0	512	484	
2	0	0	0	0	512	484	
3	0	0	0	0	511	484	
4	0	0	0	0	511	484	
5	0	0	0	0	513	484	
6	0	0	0	0	514	484	
7	0	0	0	0	515	484	
8	0	0	0	0	517	484	
9	0	0	0	0	518	484	
10	0	0	0	0	517	484	
11	0	0	0	0	516	484	
12	0	0	0	0	516	484	
13	0	0	0	0	515	484	
14	0	0	0	0	515	484	
15	0	0	0	0	514	484	
0	0	0	0	0	515	484	
1	0	0	0	0	515	484	
2	0	0	0	0	514	484	
3	0	0	0	0	513	484	
4	0	0	0	0	513	484	
5	0	0	0	0	512	484	
6	0	0	0	0	512	484	
7	0	0	0	0	512	484	
8	0	0	0	0	513	484	
9	0	0	0	0	513	484	
10	0	0	0	0	514	484	
11	0	0	0	0	513	484	
12	0	0	0	0	513	484	
13	0	0	0	0	513	484	
14	0	0	0	0	513	484	
15	0	0	0	0	513	484	
0	0	0	0	0	513	484	
1	0	0	0	0	512	484	
2	0	0	0	0	513	484	
3	0	0	0	0	513	484	
4	0	0	0	0	512	484	
5	0	0	0	0	512	484	
6	0	0	0	0	512	484	
7	0	0	0	0	511	484	
8	0	0	0	0	511	484	
9	0	0	0	0	512	484	
10	0	0	0	0	513	484	
11	0	0	0	0	514	484	
12	0	0	0	0	514	484	
13	0	0	0	0	513	484	
14	0	0	0	0	513	484	
15	0	0	0	0	514	484	
0	0	0	0	0	515	484	
1	0	0	0	0	515	484	
2	0	0	0	0	516	484	
3	0	0	0	0	516	484	
4	0	0	0	0	516	484	
5	0	0	0	0	515	484	
6	0	0	0	0	515	484	
7	0	0	0	0	516	484	
8	0	0	0	0	517	484	
9	0	0	0	0	515	484	
10	0	0	0	0	514	484	
11	0	0	0	0	514	484	
12	0	0	0	0	513	484	
13	0	0	0	0	513	484	
14	0	0	0	0	513	484	
15	0	0	0	0	512	484	
0	0	0	0	0	512	484	
1	0	0	0	0	511	484	
2	0	0	0	0	511	484	
3	0	0	0	0	512	484	
4	0	0	0	0	513	484	
5	0	0	0	0	513	484	
6	0	0	0	0	514	484	
7	0	0	0	0	514	484	
8	0	0	0	0	513	484	
9	0	0	0	0	512	484	
10	0	0	0	0	512	484	
11	0	0	0	0	512	484	
12	0	0	0	0	511	484	
13	0	0	0	0	511	484	
14	0	0	0	0	509	484	
15	0	0	0	0	508	484	
0	0	0	0	0	508	484	
1	0	0	0	0	507	484	
2	0	0	0	0	507	484	
3	0	0	0	0	507	484	
4	0	0	0	0	507	484	
5	0	0	0	0	508	484	
6	0	0	0	0	510	484	
7	0	0	0	0	510	484	
8	0	0	0	0	511	484	
9	0	0	0	0	511	484	
10	0	0	0	0	511	484	
11	0	0	0	0	511	484	
12	0	0	0	0	511	484	
13	0	0	0	0	511	484	
14	0	0	0	0	511	484	
15	0	0	0	0	510	484	
0	0	0	0	0	510	484	
1	0	0	0	0	510	484	
2	0	0	0	0	510	484	
3	0	0	0	0	510	484	
4	0	0	0	0	508	483	
5	0	0	0	0	508	484	
6	0	0	0	0	507	484	
7	0	0	0	0	509	484	
8	0	0	0	0	509	484	
9	0	0	0	0	509	484	
10	0	0	0	0	510	484	
11	0	0	0	0	511	484	
12	0	0	0	0	512	484	
13	0	0	0	0	512	484	
14	0	0	0	0	512	484	
15	0	0	0	0	511	484	
0	0	0	0	0	510	484	
1	0	0	0	0	510	484	
2	0	0	0	0	511	484	
3	0	0	0	0	509	484	
4	0	0	0	0	508	484	
5	0	0	0	0	508	484	
6	0	0	0	0	507	484	
7	0	0	0	0	508	484	
8	0	0	0	0	508	484	
9	0	0	0	0	507	484	
10	0	0	0	0	507	484	
11	0	0	0	0	507	484	
12	0	0	0	0	507	484	
13	0	0	0	0	507	484	
14	0	0	0	0	507	484	
15	0	0	0	0	507	484	
0	0	0	0	0	507	484	
1	0	0	0	0	508	484	
2	0	0	0	0	508	484	
3	0	0	0	0	508	484	
4	0	0	0	0	508	484	
5	0	0	0	0	507	484	
6	0	0	0	0	507	484	
7	0	0	0	0	507	484	
8	0	0	0	0	507	484	
9	0	0	0	0	508	484	
10	0	0	0	0	507	484	
11	0	0	0	0	507	484	
12	0	0	0	0	506	484	
13	0	0	0	0	508	484	
14	0	0	0	0	509	483	
15	0	0	0	0	509	484	
0	0	0	0	0	510	484	
1	0	0	0	0	510	484	
2	0	0	0	0	510	484	
3	0	0	0	0	511	484	
4	0	0	0	0	511	484	
5	0	0	0	0	510	484	
6	0	0	0	0	510	484	
7	0	0	0	0	508	484	
8	0	0	0	0	506	484	
9	0	0	0	0	505	483	
10	0	0	0	0	505	484	
11	0	0	0	0	505	484	
12	0	0	0	0	505	484	
13	0	0	0	0	506	484	
14	0	0	0	0	507	484	
15	0	0	0	0	506	484	
0	0	0	0	0	507	484	
1	0	0	0	0	508	484	
2	0	0	0	0	507	484	
3	0	0	0	0	507	484	
4	0	0	0	0	507	484	
5	0	0	0	0	506	484	
6	0	0	0	0	507	484	
7	0	0	0	0	508	484	
8	0	0	0	0	509	484	
9	0	0	0	0	510	484	
10	0	0	0	0	510	484	
11	0	0	0	0	508	484	
12	0	0	0	0	508	484	
13	0	0	0	0	510	484	
14	0	0	0	0	511	484	
15	0	0	0	0	511	484	
0	0	0	0	0	511	484	
1	0	0	0	0	512	484	
2	0	0	0	0	511	484	
3	0	0	0	0	511	484	
4	0	0	0	0	510	484	
5	0	0	0	0	510	484	
6	0	0	0	0	510	484	
7	0	0	0	0	510	483	
8	0	0	0	0	508	484	
9	0	0	0	0	508	483	
10	0	0	0	0	509	484	
11	0	0	0	0	509	484	
12	0	0	0	0	509	484	
13	0	0	0	0	510	484	
14	0	0	0	0	510	484	
15	0	0	0	0	511	484	
0	0	0	0	0	512	483	
1	0	0	0	0	512	484	
2	0	0	0	0	511	484	
3	0	0	0	0	510	484	
4	0	0	0	0	510	484	
5	0	0	0	0	510	484	
6	0	0	0	0	510	484	
7	0	0	0	0	511	484	
8	0	0	0	0	511	484	
9	0	0	0	0	511	484	
10	0	0	0	0	512	483	
11	0	0	0	0	512	484	
12	0	0	0	0	513	484	
13	0	0	0	0	514	484	
14	0	0	0	0	516	484	
15	0	0	0	0	519	484	
0	0	0	0	0	521	484	
1	0	0	0	0	524	484	
2	0	0	0	0	524	484	
3	0	0	0	0	525	484	
4	0	0	0	0	525	484	
5	0	0	0	0	524	484	
6	0	0	0	0	524	484	
7	0	0	0	0	526	484	
8	0	0	0	0	527	484	
9	0	0	0	0	527	484	
10	0	0	0	0	526	484	
11	0	0	0	0	526	484	
12	0	0	0	0	526	483	
13	0	0	0	0	526	484	
14	0	0	0	0	526	484	
15	0	0	0	0	527	483	
0	0	0	0	0	527	484	
1	0	0	0	0	526	483	
2	0	0	0	0	527	484	
3	0	0	0	0	527	484	
4	0	0	0	0	527	484	
5	0	0	0	0	529	484	
6	0	0	0	0	529	483	
7	0	0	0	0	531	484	
8	0	0	0	0	530	483	
9	0	0	0	0	527	484	
10	0	0	0	0	526	484	
11	0	0	0	0	526	483	
12	0	0	0	0	527	484	
13	0	0	0	0	529	484	
14	0	0	0	0	528	483	
15	0	0	0	0	529	484	
0	0	0	0	0	530	483	
1	0	0	0	0	531	483	
2	0	0	0	0	533	484	
3	0	0	0	0	536	484	
4	0	0	0	0	537	484	
5	0	0	0	0	539	483	
6	0	0	0	0	542	483	
7	0	0	0	0	543	484	
8	0	0	0	0	544	483	
9	0	0	0	0	543	483	
10	0	0	0	0	542	483	
11	0	0	0	0	540	484	
12	0	0	0	0	540	484	
13	0	0	0	0	537	483	
14	0	0	0	0	535	483	
15	0	0	0	0	534	484	
0	0	0	0	0	533	484	
1	0	0	0	0	532	483	
2	0	0	0	0	530	484	
3	0	0	0	0	529	484	
4	0	0	0	0	529	483	
5	0	0	0	0	529	483	
6	0	0	0	0	528	483	
7	0	0	0	0	527	484	
8	0	0	0	0	526	484	
9	0	0	0	0	525	484	
10	0	0	0	0	524	484	
11	0	0	0	0	523	483	
12	0	0	0	0	522	484	
13	0	0	0	0	520	483	
14	0	0	0	0	516	483	
15	0	0	0	0	512	484	
0	0	0	0	0	507	484	
1	0	0	0	0	503	483	
2	0	0	0	0	499	483	
3	0	0	0	0	495	484	
4	0	0	0	0	492	483	
5	0	0	0	0	490	484	
6	0	0	0	0	487	483	
7	0	0	0	0	486	484	
8	0	0	0	0	484	483	
9	0	0	0	0	482	484	
10	0	0	0	0	481	484	
11	0	0	0	0	482	484	
12	0	0	0	0	482	484	
13	0	0	0	0	481	483	
14	0	0	0	0	481	483	
15	0	0	0	0	481	484	
0	0	0	0	0	481	483	
1	0	0	0	0	481	483	
2	0	0	0	0	482	484	
3	0	0	0	0	482	484	
4	0	0	0	0	481	484	
5	0	0	0	0	481	484	
6	0	0	0	0	481	484	
7	0	0	0	0	480	484	
8	0	0	0	0	478	483	
9	0	0	0	0	478	484	
10	0	0	0	0	478	483	
11	0	0	0	0	478	483	
12	0	0	0	0	478	483	
13	0	0	0	0	479	484	
14	0	0	0	0	480	484	
15	0	0	0	0	481	484	
0	0	0	0	0	482	484	
1	0	0	0	0	483	483	
2	0	0	0	0	483	484	
3	0	0	0	0	485	484	
4	0	0	0	0	485	484	
5	0	0	0	0	486	484	
6	0	0	0	0	487	483	
7	0	0	0	0	487	484	
8	0	0	0	0	487	483	
9	0	0	0	0	488	484	
10	0	0	0	0	487	484	
11	0	0	0	0	487	484	
12	0	0	0	0	487	484	
13	0	0	0	0	487	484	
14	0	0	0	0	487	484	
15	0	0	0	0	487	484	
0	0	0	0	0	487	483	
1	0	0	0	0	486	484	
2	0	0	0	0	485	484	
3	0	0	0	0	483	484	
4	0	0	0	0	481	484	
5	0	0	0	0	478	483	
6	0	0	0	0	472	483	
7	0	0	0	0	467	484	
8	0	0	0	0	467	483	
9	0	0	0	0	465	484	
10	0	0	0	0	466	483	
11	0	0	0	0	467	483	
12	0	0	0	0	471	484	
13	0	0	0	0	476	483	
14	0	0	0	0	480	483	
15	0	0	0	0	486	483	
0	0	0	0	0	491	484	
1	0	0	0	0	497	483	
2	0	0	0	0	504	484	
3	0	0	0	0	513	484	
4	0	0	0	0	526	484	
5	0	0	0	0	538	484	
6	0	0	0	0	551	483	
7	0	0	0	0	567	483	
8	0	0	0	0	584	483	
9	0	0	0	0	604	484	
10	0	0	0	0	624	484	
11	0	0	0	0	643	483	
12	0	0	0	0	664	484	
13	0	0	0	0	686	483	
14	0	0	0	0	705	483	
15	0	0	0	0	723	483	
0	0	0	0	0	742	484	
1	0	0	0	0	762	483	
2	0	0	0	0	780	484	
3	0	0	0	0	794	483	
4	0	0	0	0	804	483	
5	0	0	0	0	810	483	
6	0	0	0	0	812	483	
7	0	0	0	0	812	483	
8	0	0	0	0	805	483	
9	0	0	0	0	795	483	
10	0	0	0	0	771	484	
11	0	0	0	0	738	483	
12	0	0	0	0	704	483	
13	0	0	0	0	669	483	
14	0	0	0	0	635	484	
15	0	0	0	0	601	484	
0	0	0	0	0	569	483	
1	0	0	0	0	536	483	
2	0	0	0	0	505	483	
3	0	0	0	0	476	484	
4	0	0	0	0	451	484	
5	0	0	0	0	430	483	
6	0	0	0	0	414	483	
7	0	0	0	0	401	483	
8	0	0	0	0	392	483	
9	0	0	0	0	386	483	
10	0	0	0	0	381	483	
11	0	0	0	0	377	484	
12	0	0	0	0	377	483	
13	0	0	0	0	378	483	
14	0	0	0	0	380	484	
15	0	0	0	0	382	484	
0	0	0	0	0	383	483	
1	0	0	0	0	386	483	
2	0	0	0	0	391	483	
3	0	0	0	0	396	484	
4	0	0	0	0	401	484	
5	0	0	0	0	406	483	
6	0	0	0	0	411	483	
7	0	0	0	0	416	483	
8	0	0	0	0	422	483	
9	0	0	0	0	427	483	
10	0	0	0	0	430	484	
11	0	0	0	0	433	483	
12	0	0	0	0	437	483	
13	0	0	0	0	439	483	
14	0	0	0	0	443	483	
15	0	0	0	0	447	483	
0	0	0	0	0	450	483	
1	0	0	0	0	453	483	
2	0	0	0	0	456	483	
3	0	0	0	0	459	483	
4	0	0	0	0	463	483	
5	0	0	0	0	465	483	
6	0	0	0	0	467	483	
7	0	0	0	0	468	483	
8	0	0	0	0	470	483	
9	0	0	0	0	472	483	
10	0	0	0	0	475	483	
11	0	0	0	0	479	483	
12	0	0	0	0	481	483	
13	0	0	0	0	484	483	
14	0	0	0	0	485	483	
15	0	0	0	0	487	483	
0	0	0	0	0	487	483	
1	0	0	0	0	486	483	
2	0	0	0	0	485	483	
3	0	0	0	0	484	483	
4	0	0	0	0	483	483	
5	0	0	0	0	484	483	
6	0	0	0	0	484	483	
7	0	0	0	0	484	483	
8	0	0	0	0	485	483	
9	0	0	0	0	486	483	
10	0	0	0	0	489	483	
11	0	0	0	0	489	483	
12	0	0	0	0	488	483	
13	0	0	0	0	489	483	
14	0	0	0	0	488	483	
15	0	0	0	0	488	483	
0	0	0	0	0	488	484	
1	0	0	0	0	489	484	
2	0	0	0	0	491	483	
3	0	0	0	0	492	483	
4	0	0	0	0	492	483	
5	0	0	0	0	490	484	
6	0	0	0	0	490	483	
7	0	0	0	0	491	483	
8	0	0	0	0	493	483	
9	0	0	0	0	494	483	
10	0	0	0	0	495	484	
11	0	0	0	0	496	483	
12	0	0	0	0	496	483	
13	0	0	0	0	496	483	
14	0	0	0	0	497	483	
15	0	0	0	0	498	483	
0	0	0	0	0	499	483	
1	0	0	0	0	500	483	
2	0	0	0	0	501	483	
3	0	0	0	0	503	483	
4	0	0	0	0	503	483	
5	0	0	0	0	504	483	
6	0	0	0	0	506	483	
7	0	0	0	0	507	483	
8	0	0	0	0	507	483	
9	0	0	0	0	508	483	
10	0	0	0	0	508	483	
11	0	0	0	0	509	483	
12	0	0	0	0	511	483	
13	0	0	0	0	512	483	
14	0	0	0	0	512	483	
15	0	0	0	0	512	483	
0	0	0	0	0	511	483	
1	0	0	0	0	512	483	
2	0	0	0	0	513	483	
3	0	0	0	0	513	483	
4	0	0	0	0	514	483	
5	0	0	0	0	513	483	
6	0	0	0	0	513	483	
7	0	0	0	0	514	483	
8	0	0	0	0	515	483	
9	0	0	0	0	514	483	
10	0	0	0	0	514	483	
11	0	0	0	0	515	483	
12	0	0	0	0	513	483	
13	0	0	0	0	514	483	
14	0	0	0	0	513	483	
15	0	0	0	0	512	483	
0	0	0	0	0	511	483	
1	0	0	0	0	510	483	
2	0	0	0	0	510	483	
3	0	0	0	0	511	483	
4	0	0	0	0	511	483	
5	0	0	0	0	512	483	
6	0	0	0	0	512	483	
7	0	0	0	0	512	483	
8	0	0	0	0	513	483	
9	0	0	0	0	517	483	
10	0	0	0	0	519	483	
11	0	0	0	0	519	483	
12	0	0	0	0	521	483	
13	0	0	0	0	522	483	
14	0	0	0	0	522	483	
15	0	0	0	0	520	483	
0	0	0	0	0	518	483	
1	0	0	0	0	518	483	
2	0	0	0	0	517	483	
3	0	0	0	0	515	483	
4	0	0	0	0	514	483	
5	0	0	0	0	513	483	
6	0	0	0	0	513	483	
7	0	0	0	0	513	483	
8	0	0	0	0	516	483	
9	0	0	0	0	514	483	
10	0	0	0	0	514	483	
11	0	0	0	0	513	483	
12	0	0	0	0	514	483	
13	0	0	0	0	513	483	
14	0	0	0	0	512	483	
15	0	0	0	0	513	483	
0	0	0	0	0	513	483	
1	0	0	0	0	516	483	
2	0	0	0	0	516	483	
3	0	0	0	0	516	483	
4	0	0	0	0	517	483	
5	0	0	0	0	518	483	
6	0	0	0	0	518	483	
7	0	0	0	0	517	483	
8	0	0	0	0	516	483	
9	0	0	0	0	517	483	
10	0	0	0	0	518	483	
11	0	0	0	0	519	483	
12	0	0	0	0	521	483	
13	0	0	0	0	520	483	
14	0	0	0	0	519	483	
15	0	0	0	0	519	483	
0	0	0	0	0	519	483	
1	0	0	0	0	520	483	
2	0	0	0	0	519	483	
3	0	0	0	0	519	483	
4	0	0	0	0	520	483	
5	0	0	0	0	521	483	
6	0	0	0	0	521	483	
7	0	0	0	0	524	483	
8	0	0	0	0	524	483	
9	0	0	0	0	524	483	
10	0	0	0	0	524	483	
11	0	0	0	0	526	483	
12	0	0	0	0	525	483	
13	0	0	0	0	527	483	
14	0	0	0	0	528	483	
15	0	0	0	0	527	483	
0	0	0	0	0	527	483	
1	0	0	0	0	528	483	
2	0	0	0	0	530	483	
3	0	0	0	0	530	483	
4	0	0	0	0	528	483	
5	0	0	0	0	527	483	
6	0	0	0	0	526	483	
7	0	0	0	0	525	483	
8	0	0	0	0	524	483	
9	0	0	0	0	522	483	
10	0	0	0	0	522	483	
11	0	0	0	0	521	483	
12	0	0	0	0	521	483	
13	0	0	0	0	522	483	
14	0	0	0	0	522	483	
15	0	0	0	0	523	483	
0	0	0	0	0	523	483	
1	0	0	0	0	523	483	
2	0	0	0	0	525	483	
3	0	0	0	0	527	483	
4	0	0	0	0	529	483	
5	0	0	0	0	529	483	
6	0	0	0	0	529	483	
7	0	0	0	0	531	483	
8	0	0	0	0	532	483	
9	0	0	0	0	533	483	
10	0	0	0	0	534	483	
11	0	0	0	0	533	483	
12	0	0	0	0	533	483	
13	0	0	0	0	530	483	
14	0	0	0	0	528	483	
15	0	0	0	0	529	483	
0	0	0	0	0	529	483	
1	0	0	0	0	529	483	
2	0	0	0	0	530	483	
3	0	0	0	0	531	483	
4	0	0	0	0	531	483	
5	0	0	0	0	530	483	
6	0	0	0	0	529	483	
7	0	0	0	0	528	483	
8	0	0	0	0	530	483	
9	0	0	0	0	531	483	
10	0	0	0	0	532	483	
11	0	0	0	0	533	483	
12	0	0	0	0	533	483	
13	0	0	0	0	533	483	
14	0	0	0	0	534	483	
15	0	0	0	0	534	483	
0	0	0	0	0	532	483	
1	0	0	0	0	531	483	
2	0	0	0	0	532	483	
3	0	0	0	0	533	483	
4	0	0	0	0	534	483	
5	0	0	0	0	535	483	
6	0	0	0	0	535	483	
7	0	0	0	0	534	483	
8	0	0	0	0	535	483	
9	0	0	0	0	535	483	
10	0	0	0	0	534	483	
11	0	0	0	0	534	483	
12	0	0	0	0	532	483	
13	0	0	0	0	530	483	
14	0	0	0	0	529	483	
15	0	0	0	0	528	483	
0	0	0	0	0	527	483	
1	0	0	0	0	528	483	
2	0	0	0	0	529	483	
3	0	0	0	0	529	483	
4	0	0	0	0	529	483	
5	0	0	0	0	528	483	
6	0	0	0	0	529	483	
7	0	0	0	0	531	483	
8	0	0	0	0	531	483	
9	0	0	0	0	531	483	
10	0	0	0	0	530	483	
11	0	0	0	0	530	483	
12	0	0	0	0	530	483	
13	0	0	0	0	531	483	
14	0	0	0	0	529	483	
15	0	0	0	0	527	483	
0	0	0	0	0	526	483	
1	0	0	0	0	524	483	
2	0	0	0	0	521	483	
3	0	0	0	0	521	483	
4	0	0	0	0	519	483	
5	0	0	0	0	518	483	
6	0	0	0	0	519	483	
7	0	0	0	0	519	483	
8	0	0	0	0	519	483	
9	0	0	0	0	518	483	
10	0	0	0	0	517	483	
11	0	0	0	0	516	483	
12	0	0	0	0	517	483	
13	0	0	0	0	517	483	
14	0	0	0	0	515	483	
15	0	0	0	0	516	483	
0	0	0	0	0	516	483	
1	0	0	0	0	518	483	
2	0	0	0	0	517	483	
3	0	0	0	0	516	483	
4	0	0	0	0	515	483	
5	0	0	0	0	515	483	
6	0	0	0	0	513	483	
7	0	0	0	0	512	483	
8	0	0	0	0	512	483	
9	0	0	0	0	511	483	
10	0	0	0	0	510	483	
11	0	0	0	0	509	483	
12	0	0	0	0	508	483	
13	0	0	0	0	508	483	
14	0	0	0	0	507	483	
15	0	0	0	0	508	483	
0	0	0	0	0	508	483	
1	0	0	0	0	508	483	
2	0	0	0	0	507	483	
3	0	0	0	0	505	483	
4	0	0	0	0	503	483	
5	0	0	0	0	502	483	
6	0	0	0	0	502	483	
7	0	0	0	0	502	483	
8	0	0	0	0	503	483	
9	0	0	0	0	502	483	
10	0	0	0	0	501	483	
11	0	0	0	0	500	483	
12	0	0	0	0	499	483	
13	0	0	0	0	498	483	
14	0	0	0	0	497	483	
15	0	0	0	0	496	483	
0	0	0	0	0	497	483	
1	0	0	0	0	497	483	
2	0	0	0	0	498	483	
3	0	0	0	0	497	483	
4	0	0	0	0	497	483	
5	0	0	0	0	496	483	
6	0	0	0	0	494	483	
7	0	0	0	0	494	483	
8	0	0	0	0	493	483	
9	0	0	0	0	492	483	
10	0	0	0	0	492	483	
11	0	0	0	0	491	483	
12	0	0	0	0	489	483	
13	0	0	0	0	488	483	
14	0	0	0	0	487	483	
15	0	0	0	0	487	483	
0	0	0	0	0	489	483	
1	0	0	0	0	489	483	
2	0	0	0	0	489	483	
3	0	0	0	0	491	483	
4	0	0	0	0	492	483	
5	0	0	0	0	492	483	
6	0	0	0	0	492	483	
7	0	0	0	0	494	483	
8	0	0	0	0	492	483	
9	0	0	0	0	492	483	
10	0	0	0	0	493	483	
11	0	0	0	0	493	483	
12	0	0	0	0	491	483	
13	0	0	0	0	489	483	
14	0	0	0	0	491	483	
15	0	0	0	0	488	483	
0	0	0	0	0	487	483	
1	0	0	0	0	484	483	
2	0	0	0	0	484	483	
3	0	0	0	0	484	483	
4	0	0	0	0	486	483	
5	0	0	0	0	486	483	
6	0	0	0	0	488	483	
7	0	0	0	0	489	483	
8	0	0	0	0	489	483	
9	0	0	0	0	487	483	
10	0	0	0	0	487	483	
11	0	0	0	0	486	483	
12	0	0	0	0	486	483	
13	0	0	0	0	487	483	
14	0	0	0	0	487	483	
15	0	0	0	0	487	483	
0	0	0	0	0	488	483	
1	0	0	0	0	490	483	
2	0	0	0	0	491	483	
3	0	0	0	0	492	483	
4	0	0	0	0	491	483	
5	0	0	0	0	491	483	
6	0	0	0	0	491	483	
7	0	0	0	0	491	483	
8	0	0	0	0	492	483	
9	0	0	0	0	494	483	
10	0	0	0	0	496	483	
11	0	0	0	0	498	483	
12	0	0	0	0	500	483	
13	0	0	0	0	501	483	
14	0	0	0	0	502	483	
15	0	0	0	0	501	483	
0	0	0	0	0	500	483	
1	0	0	0	0	500	483	
2	0	0	0	0	499	483	
3	0	0	0	0	500	483	
4	0	0	0	0	502	483	
5	0	0	0	0	502	483	
6	0	0	0	0	503	483	
7	0	0	0	0	505	483	
8	0	0	0	0	508	483	
9	0	0	0	0	509	483	
10	0	0	0	0	510	483	
11	0	0	0	0	510	483	
12	0	0	0	0	510	483	
13	0	0	0	0	509	483	
14	0	0	0	0	507	483	
15	0	0	0	0	506	483	
0	0	0	0	0	506	483	
1	0	0	0	0	505	483	
2	0	0	0	0	504	483	
3	0	0	0	0	504	483	
4	0	0	0	0	506	483	
5	0	0	0	0	508	483	
6	0	0	0	0	508	483	
7	0	0	0	0	507	483	
8	0	0	0	0	508	483	
9	0	0	0	0	509	483	
10	0	0	0	0	508	483	
11	0	0	0	0	508	483	
12	0	0	0	0	509	483	
13	0	0	0	0	510	483	
14	0	0	0	0	510	483	
15	0	0	0	0	511	483	
0	0	0	0	0	511	483	
1	0	0	0	0	512	483	
2	0	0	0	0	512	483	
3	0	0	0	0	512	483	
4	0	0	0	0	513	483	
5	0	0	0	0	512	482	
6	0	0	0	0	512	483	
7	0	0	0	0	511	483	
8	0	0	0	0	512	483	
9	0	0	0	0	512	483	
10	0	0	0	0	512	483	
11	0	0	0	0	511	483	
12	0	0	0	0	511	483	
13	0	0	0	0	510	483	
14	0	0	0	0	511	483	
15	0	0	0	0	510	482	
0	0	0	0	0	509	483	
1	0	0	0	0	510	482	
2	0	0	0	0	511	483	
3	0	0	0	0	509	482	
4	0	0	0	0	508	483	
5	0	0	0	0	508	483	
6	0	0	0	0	510	483	
7	0	0	0	0	510	482	
8	0	0	0	0	511	482	
9	0	0	0	0	511	482	
10	0	0	0	0	510	483	
11	0	0	0	0	510	482	
12	0	0	0	0	511	482	
13	0	0	0	0	511	483	
14	0	0	0	0	511	482	
15	0	0	0	0	512	483	
0	0	0	0	0	512	482	
1	0	0	0	0	515	482	
2	0	0	0	0	516	482	
3	0	0	0	0	516	482	
4	0	0	0	0	515	483	
5	0	0	0	0	512	482	
6	0	0	0	0	511	483	
7	0	0	0	0	511	483	
8	0	0	0	0	511	482	
9	0	0	0	0	512	482	
10	0	0	0	0	510	482	
11	0	0	0	0	508	483	
12	0	0	0	0	508	483	
13	0	0	0	0	505	482	
14	0	0	0	0	505	482	
15	0	0	0	0	507	482	
0	0	0	0	0	509	483	
1	0	0	0	0	509	483	
2	0	0	0	0	509	482	
3	0	0	0	0	508	482	
4	0	0	0	0	508	482	
5	0	0	0	0	507	482	
6	0	0	0	0	508	482	
7	0	0	0	0	507	482	
8	0	0	0	0	509	482	
9	0	0	0	0	510	482	
10	0	0	0	0	508	482	
11	0	0	0	0	506	482	
12	0	0	0	0	504	482	
13	0	0	0	0	504	483	
14	0	0	0	0	500	482	
15	0	0	0	0	498	482	
0	0	0	0	0	498	482	
1	0	0	0	0	499	482	
2	0	0	0	0	500	482	
3	0	0	0	0	503	482	
4	0	0	0	0	506	482	
5	0	0	0	0	506	482	
6	0	0	0	0	504	482	
7	0	0	0	0	503	483	
8	0	0	0	0	502	482	
9	0	0	0	0	501	482	
10	0	0	0	0	502	482	
11	0	0	0	0	500	482	
12	0	0	0	0	499	482	
13	0	0	0	0	498	482	
14	0	0	0	0	496	482	
15	0	0	0	0	496	482	
0	0	0	0	0	496	482	
1	0	0	0	0	498	482	
2	0	0	0	0	499	482	
3	0	0	0	0	499	482	
4	0	0	0	0	498	482	
5	0	0	0	0	499	482	
6	0	0	0	0	500	482	
7	0	0	0	0	501	482	
8	0	0	0	0	502	482	
9	0	0	0	0	502	482	
10	0	0	0	0	500	482	
11	0	0	0	0	502	482	
12	0	0	0	0	502	482	
13	0	0	0	0	501	482	
14	0	0	0	0	501	482	
15	0	0	0	0	502	482	
0	0	0	0	0	503	482	
1	0	0	0	0	504	482	
2	0	0	0	0	503	482	
3	0	0	0	0	505	482	
4	0	0	0	0	502	482	
5	0	0	0	0	503	482	
6	0	0	0	0	503	482	
7	0	0	0	0	502	482	
8	0	0	0	0	500	482	
9	0	0	0	0	499	482	
10	0	0	0	0	499	482	
11	0	0	0	0	497	482	
12	0	0	0	0	495	482	
13	0	0	0	0	495	482	
14	0	0	0	0	494	482	
15	0	0	0	0	494	482	
0	0	0	0	0	493	482	
1	0	0	0	0	495	482	
2	0	0	0	0	495	482	
3	0	0	0	0	496	482	
4	0	0	0	0	499	482	
5	0	0	0	0	500	482	
6	0	0	0	0	503	482	
7	0	0	0	0	505	482	
8	0	0	0	0	505	482	
9	0	0	0	0	505	482	
10	0	0	0	0	503	482	
11	0	0	0	0	498	482	
12	0	0	0	0	499	482	
13	0	0	0	0	499	482	
14	0	0	0	0	500	482	
15	0	0	0	0	497	482	
0	0	0	0	0	495	482	
1	0	0	0	0	497	482	
2	0	0	0	0	500	482	
3	0	0	0	0	500	482	
4	0	0	0	0	502	482	
5	0	0	0	0	506	482	
6	0	0	0	0	507	482	
7	0	0	0	0	503	482	
8	0	0	0	0	502	482	
9	0	0	0	0	504	482	
10	0	0	0	0	506	482	
11	0	0	0	0	507	482	
12	0	0	0	0	508	482	
13	0	0	0	0	510	482	
14	0	0	0	0	510	482	
15	0	0	0	0	506	482	
0	0	0	0	0	504	482	
1	0	0	0	0	502	482	
2	0	0	0	0	502	482	
3	0	0	0	0	504	482	
4	0	0	0	0	504	482	
5	0	0	0	0	504	482	
6	0	0	0	0	503	482	
7	0	0	0	0	502	482	
8	0	0	0	0	502	482	
9	0	0	0	0	503	482	
10	0	0	0	0	504	482	
11	0	0	0	0	502	482	
12	0	0	0	0	501	482	
13	0	0	0	0	501	482	
14	0	0	0	0	501	482	
15	0	0	0	0	499	482	
0	0	0	0	0	499	482	
1	0	0	0	0	497	482	
2	0	0	0	0	496	482	
3	0	0	0	0	496	482	
4	0	0	0	0	495	482	
5	0	0	0	0	495	482	
6	0	0	0	0	496	482	
7	0	0	0	0	496	482	
8	0	0	0	0	496	482	
9	0	0	0	0	495	482	
10	0	0	0	0	496	482	
11	0	0	0	0	496	482	
12	0	0	0	0	496	482	
13	0	0	0	0	496	482	
14	0	0	0	0	497	482	
15	0	0	0	0	498	482	
0	0	0	0	0	498	482	
1	0	0	0	0	498	482	
2	0	0	0	0	499	482	
3	0	0	0	0	499	482	
4	0	0	0	0	500	482	
5	0	0	0	0	501	482	
6	0	0	0	0	500	482	
7	0	0	0	0	500	482	
8	0	0	0	0	502	482	
9	0	0	0	0	503	482	
10	0	0	0	0	502	482	
11	0	0	0	0	503	482	
12	0	0	0	0	504	482	
13	0	0	0	0	504	482	
14	0	0	0	0	504	482	
15	0	0	0	0	505	482	
0	0	0	0	0	504	482	
1	0	0	0	0	504	482	
2	0	0	0	0	504	482	
3	0	0	0	0	505	482	
4	0	0	0	0	506	482	
5	0	0	0	0	506	482	
6	0	0	0	0	507	482	
7	0	0	0	0	508	482	
8	0	0	0	0	510	482	
9	0	0	0	0	511	482	
10	0	0	0	0	512	482	
11	0	0	0	0	513	482	
12	0	0	0	0	515	482	
13	0	0	0	0	514	482	
14	0	0	0	0	512	482	
15	0	0	0	0	511	482	
0	0	0	0	0	507	482	
1	0	0	0	0	503	482	
2	0	0	0	0	500	482	
3	0	0	0	0	499	482	
4	0	0	0	0	497	482	
5	0	0	0	0	499	482	
6	0	0	0	0	501	482	
7	0	0	0	0	503	482	
8	0	0	0	0	504	482	
9	0	0	0	0	507	482	
10	0	0	0	0	508	482	
11	0	0	0	0	509	482	
12	0	0	0	0	511	482	
13	0	0	0	0	512	482	
14	0	0	0	0	512	482	
15	0	0	0	0	512	482	
0	0	0	0	0	514	482	
1	0	0	0	0	517	482	
2	0	0	0	0	519	482	
3	0	0	0	0	519	482	
4	0	0	0	0	520	482	
5	0	0	0	0	523	482	
6	0	0	0	0	525	482	
7	0	0	0	0	524	482	
8	0	0	0	0	525	482	
9	0	0	0	0	525	482	
10	0	0	0	0	526	482	
11	0	0	0	0	526	482	
12	0	0	0	0	527	482	
13	0	0	0	0	527	481	
14	0	0	0	0	528	482	
15	0	0	0	0	529	482	
0	0	0	0	0	531	482	
1	0	0	0	0	531	482	
2	0	0	0	0	533	482	
3	0	0	0	0	534	482	
4	0	0	0	0	533	482	
5	0	0	0	0	532	482	
6	0	0	0	0	532	482	
7	0	0	0	0	533	482	
8	0	0	0	0	534	482	
9	0	0	0	0	534	482	
10	0	0	0	0	534	482	
11	0	0	0	0	533	482	
12	0	0	0	0	530	482	
13	0	0	0	0	529	482	
14	0	0	0	0	528	482	
15	0	0	0	0	527	482	
0	0	0	0	0	529	482	
1	0	0	0	0	530	482	
2	0	0	0	0	532	482	
3	0	0	0	0	534	482	
4	0	0	0	0	535	482	
5	0	0	0	0	536	482	
6	0	0	0	0	538	482	
7	0	0	0	0	539	482	
8	0	0	0	0	540	482	
9	0	0	0	0	541	482	
10	0	0	0	0	542	482	
11	0	0	0	0	543	482	
12	0	0	0	0	543	482	
13	0	0	0	0	543	482	
14	0	0	0	0	543	482	
15	0	0	0	0	543	482	
0	0	0	0	0	542	482	
1	0	0	0	0	540	482	
2	0	0	0	0	538	482	
3	0	0	0	0	537	482	
4	0	0	0	0	535	482	
5	0	0	0	0	533	482	
6	0	0	0	0	531	482	
7	0	0	0	0	532	482	
8	0	0	0	0	530	482	
9	0	0	0	0	528	482	
10	0	0	0	0	527	482	
11	0	0	0	0	526	482	
12	0	0	0	0	524	482	
13	0	0	0	0	522	482	
14	0	0	0	0	521	481	
15	0	0	0	0	519	482	
0	0	0	0	0	518	482	
1	0	0	0	0	515	482	
2	0	0	0	0	512	482	
3	0	0	0	0	509	482	
4	0	0	0	0	506	482	
5	0	0	0	0	503	482	
6	0	0	0	0	499	482	
7	0	0	0	0	497	482	
8	0	0	0	0	494	482	
9	0	0	0	0	490	482	
10	0	0	0	0	486	482	
11	0	0	0	0	482	482	
12	0	0	0	0	480	482	
13	0	0	0	0	478	482	
14	0	0	0	0	477	481	
15	0	0	0	0	478	481	
0	0	0	0	0	478	482	
1	0	0	0	0	477	482	
2	0	0	0	0	478	482	
3	0	0	0	0	480	482	
4	0	0	0	0	479	482	
5	0	0	0	0	479	482	
6	0	0	0	0	479	482	
7	0	0	0	0	480	482	
8	0	0	0	0	480	481	
9	0	0	0	0	479	482	
10	0	0	0	0	479	482	
11	0	0	0	0	479	482	
12	0	0	0	0	480	482	
13	0	0	0	0	480	482	
14	0	0	0	0	480	482	
15	0	0	0	0	480	482	
0	0	0	0	0	479	482	
1	0	0	0	0	480	482	
2	0	0	0	0	481	482	
3	0	0	0	0	482	482	
4	0	0	0	0	482	482	
5	0	0	0	0	483	482	
6	0	0	0	0	483	482	
7	0	0	0	0	483	482	
8	0	0	0	0	483	482	
9	0	0	0	0	483	482	
10	0	0	0	0	483	482	
11	0	0	0	0	484	482	
12	0	0	0	0	484	482	
13	0	0	0	0	484	482	
14	0	0	0	0	486	482	
15	0	0	0	0	486	482	
0	0	0	0	0	487	482	
1	0	0	0	0	487	482	
2	0	0	0	0	487	482	
3	0	0	0	0	486	482	
4	0	0	0	0	486	482	
5	0	0	0	0	485	482	
6	0	0	0	0	483	482	
7	0	0	0	0	481	482	
8	0	0	0	0	478	481	
9	0	0	0	0	473	482	
10	0	0	0	0	468	482	
11	0	0	0	0	466	482	
12	0	0	0	0	465	482	
13	0	0	0	0	466	482	
14	0	0	0	0	467	482	
15	0	0	0	0	468	482	
0	0	0	0	0	471	481	
1	0	0	0	0	474	482	
2	0	0	0	0	479	482	
3	0	0	0	0	484	482	
4	0	0	0	0	489	482	
5	0	0	0	0	495	482	
6	0	0	0	0	501	481	
7	0	0	0	0	510	482	
8	0	0	0	0	521	482	
9	0	0	0	0	533	482	
10	0	0	0	0	545	481	
11	0	0	0	0	561	481	
12	0	0	0	0	580	482	
13	0	0	0	0	599	482	
14	0	0	0	0	617	482	
15	0	0	0	0	636	481	
0	0	0	0	0	657	481	
1	0	0	0	0	679	482	
2	0	0	0	0	699	481	
3	0	0	0	0	718	482	
4	0	0	0	0	737	482	
5	0	0	0	0	757	481	
6	0	0	0	0	773	482	
7	0	0	0	0	786	481	
8	0	0	0	0	792	482	
9	0	0	0	0	796	481	
10	0	0	0	0	797	481	
11	0	0	0	0	796	482	
12	0	0	0	0	789	481	
13	0	0	0	0	773	482	
14	0	0	0	0	745	482	
15	0	0	0	0	712	481	
0	0	0	0	0	678	481	
1	0	0	0	0	643	481	
2	0	0	0	0	610	482	
3	0	0	0	0	577	482	
4	0	0	0	0	543	481	
5	0	0	0	0	512	482	
6	0	0	0	0	484	482	
7	0	0	0	0	457	482	
8	0	0	0	0	434	481	
9	0	0	0	0	415	481	
10	0	0	0	0	399	482	
11	0	0	0	0	388	482	
12	0	0	0	0	380	482	
13	0	0	0	0	375	481	
14	0	0	0	0	373	482	
15	0	0	0	0	371	482	
0	0	0	0	0	371	481	
1	0	0	0	0	372	481	
2	0	0	0	0	374	482	
3	0	0	0	0	377	481	
4	0	0	0	0	380	482	
5	0	0	0	0	383	481	
6	0	0	0	0	388	481	
7	0	0	0	0	391	481	
8	0	0	0	0	396	482	
9	0	0	0	0	399	482	
10	0	0	0	0	404	481	
11	0	0	0	0	409	482	
12	0	0	0	0	414	482	
13	0	0	0	0	419	482	
14	0	0	0	0	424	481	
15	0	0	0	0	428	482	
0	0	0	0	0	433	482	
1	0	0	0	0	438	481	
2	0	0	0	0	443	482	
3	0	0	0	0	447	482	
4	0	0	0	0	451	481	
5	0	0	0	0	455	482	
6	0	0	0	0	457	481	
7	0	0	0	0	459	482	
8	0	0	0	0	460	482	
9	0	0	0	0	461	482	
10	0	0	0	0	462	482	
11	0	0	0	0	463	481	
12	0	0	0	0	465	481	
13	0	0	0	0	467	481	
14	0	0	0	0	468	482	
15	0	0	0	0	470	481	
0	0	0	0	0	470	481	
1	0	0	0	0	472	481	
2	0	0	0	0	472	482	
3	0	0	0	0	473	481	
4	0	0	0	0	474	482	
5	0	0	0	0	475	481	
6	0	0	0	0	475	481	
7	0	0	0	0	476	482	
8	0	0	0	0	478	481	
9	0	0	0	0	478	482	
10	0	0	0	0	479	481	
11	0	0	0	0	480	481	
12	0	0	0	0	481	482	
13	0	0	0	0	482	482	
14	0	0	0	0	483	481	
15	0	0	0	0	485	481	
0	0	0	0	0	486	482	
1	0	0	0	0	486	482	
2	0	0	0	0	487	481	
3	0	0	0	0	487	481	
4	0	0	0	0	487	481	
5	0	0	0	0	488	482	
6	0	0	0	0	488	481	
7	0	0	0	0	489	482	
8	0	0	0	0	489	481	
9	0	0	0	0	489	481	
10	0	0	0	0	488	482	
11	0	0	0	0	488	482	
12	0	0	0	0	488	481	
13	0	0	0	0	488	481	
14	0	0	0	0	490	482	
15	0	0	0	0	491	481	
0	0	0	0	0	492	481	
1	0	0	0	0	492	481	
2	0	0	0	0	494	482	
3	0	0	0	0	496	481	
4	0	0	0	0	497	481	
5	0	0	0	0	496	481	
6	0	0	0	0	496	481	
7	0	0	0	0	497	481	
8	0	0	0	0	498	482	
9	0	0	0	0	497	481	
10	0	0	0	0	497	482	
11	0	0	0	0	497	481	
12	0	0	0	0	497	481	
13	0	0	0	0	496	481	
14	0	0	0	0	496	481	
15	0	0	0	0	497	481	
0	0	0	0	0	499	481	
1	0	0	0	0	501	481	
2	0	0	0	0	503	481	
3	0	0	0	0	504	481	
4	0	0	0	0	504	481	
5	0	0	0	0	504	481	
6	0	0	0	0	504	481	
7	0	0	0	0	503	482	
8	0	0	0	0	504	482	
9	0	0	0	0	504	481	
10	0	0	0	0	504	481	
11	0	0	0	0	505	481	
12	0	0	0	0	505	481	
13	0	0	0	0	505	481	
14	0	0	0	0	504	481	
15	0	0	0	0	505	481	
0	0	0	0	0	504	481	
1	0	0	0	0	505	481	
2	0	0	0	0	504	481	
3	0	0	0	0	503	481	
4	0	0	0	0	503	481	
5	0	0	0	0	504	481	
6	0	0	0	0	505	481	
7	0	0	0	0	507	481	
8	0	0	0	0	507	482	
9	0	0	0	0	507	481	
10	0	0	0	0	508	481	
11	0	0	0	0	506	481	
12	0	0	0	0	506	481	
13	0	0	0	0	507	481	
14	0	0	0	0	507	481	
15	0	0	0	0	508	481	
0	0	0	0	0	508	481	
1	0	0	0	0	509	481	
2	0	0	0	0	509	481	
3	0	0	0	0	510	481	
4	0	0	0	0	511	481	
5	0	0	0	0	511	481	
6	0	0	0	0	511	481	
7	0	0	0	0	511	481	
8	0	0	0	0	512	481	
9	0	0	0	0	512	481	
10	0	0	0	0	512	481	
11	0	0	0	0	512	481	
12	0	0	0	0	511	481	
13	0	0	0	0	510	481	
14	0	0	0	0	508	481	
15	0	0	0	0	505	481	
0	0	0	0	0	504	481	
1	0	0	0	0	504	481	
2	0	0	0	0	504	481	
3	0	0	0	0	505	481	
4	0	0	0	0	505	481	
5	0	0	0	0	507	481	
6	0	0	0	0	507	481	
7	0	0	0	0	507	481	
8	0	0	0	0	508	481	
9	0	0	0	0	508	481	
10	0	0	0	0	509	481	
11	0	0	0	0	510	481	
12	0	0	0	0	511	481	
13	0	0	0	0	511	481	
14	0	0	0	0	512	481	
15	0	0	0	0	512	481	
0	0	0	0	0	512	481	
1	0	0	0	0	511	481	
2	0	0	0	0	510	482	
3	0	0	0	0	511	481	
4	0	0	0	0	512	481	
5	0	0	0	0	512	481	
6	0	0	0	0	512	481	
7	0	0	0	0	512	481	
8	0	0	0	0	511	481	
9	0	0	0	0	511	481	
10	0	0	0	0	511	481	
11	0	0	0	0	511	481	
12	0	0	0	0	510	481	
13	0	0	0	0	510	481	
14	0	0	0	0	510	481	
15	0	0	0	0	510	481	
0	0	0	0	0	510	481	
1	0	0	0	0	509	481	
2	0	0	0	0	510	481	
3	0	0	0	0	511	481	
4	0	0	0	0	511	481	
5	0	0	0	0	511	481	
6	0	0	0	0	511	481	
7	0	0	0	0	511	481	
8	0	0	0	0	511	481	
9	0	0	0	0	511	481	
10	0	0	0	0	512	481	
11	0	0	0	0	512	481	
12	0	0	0	0	512	481	
13	0	0	0	0	512	481	
14	0	0	0	0	512	481	
15	0	0	0	0	513	481	
0	0	0	0	0	513	481	
1	0	0	0	0	514	481	
2	0	0	0	0	514	481	
3	0	0	0	0	514	481	
4	0	0	0	0	515	481	
5	0	0	0	0	517	481	
6	0	0	0	0	519	481	
7	0	0	0	0	519	481	
8	0	0	0	0	519	481	
9	0	0	0	0	520	481	
10	0	0	0	0	521	481	
11	0	0	0	0	522	481	
12	0	0	0	0	523	481	
13	0	0	0	0	523	481	
14	0	0	0	0	524	481	
15	0	0	0	0	523	481	
0	0	0	0	0	524	481	
1	0	0	0	0	524	481	
2	0	0	0	0	525	481	
3	0	0	0	0	525	481	
4	0	0	0	0	526	481	
5	0	0	0	0	526	481	
6	0	0	0	0	527	481	
7	0	0	0	0	527	481	
8	0	0	0	0	528	481	
9	0	0	0	0	528	481	
10	0	0	0	0	529	481	
11	0	0	0	0	529	481	
12	0	0	0	0	528	481	
13	0	0	0	0	528	481	
14	0	0	0	0	529	481	
15	0	0	0	0	528	481	
0	0	0	0	0	528	481	
1	0	0	0	0	529	481	
2	0	0	0	0	530	481	
3	0	0	0	0	531	481	
4	0	0	0	0	531	481	
5	0	0	0	0	531	481	
6	0	0	0	0	532	481	
7	0	0	0	0	532	481	
8	0	0	0	0	532	481	
9	0	0	0	0	532	481	
10	0	0	0	0	533	481	
11	0	0	0	0	532	481	
12	0	0	0	0	532	481	
13	0	0	0	0	532	481	
14	0	0	0	0	532	481	
15	0	0	0	0	533	481	
0	0	0	0	0	533	481	
1	0	0	0	0	533	481	
2	0	0	0	0	532	481	
3	0	0	0	0	531	481	
4	0	0	0	0	531	481	
5	0	0	0	0	530	481	
6	0	0	0	0	530	481	
7	0	0	0	0	530	481	
8	0	0	0	0	529	481	
9	0	0	0	0	528	481	
10	0	0	0	0	528	481	
11	0	0	0	0	530	481	
12	0	0	0	0	531	481	
13	0	0	0	0	531	481	
14	0	0	0	0	530	481	
15	0	0	0	0	530	481	
0	0	0	0	0	530	481	
1	0	0	0	0	530	481	
2	0	0	0	0	529	481	
3	0	0	0	0	527	481	
4	0	0	0	0	527	481	
5	0	0	0	0	526	481	
6	0	0	0	0	525	481	
7	0	0	0	0	525	481	
8	0	0	0	0	524	481	
9	0	0	0	0	524	481	
10	0	0	0	0	523	481	
11	0	0	0	0	523	481	
12	0	0	0	0	523	481	
13	0	0	0	0	522	481	
14	0	0	0	0	521	481	
15	0	0	0	0	521	481	
0	0	0	0	0	522	481	
1	0	0	0	0	522	481	
2	0	0	0	0	520	481	
3	0	0	0	0	520	481	
4	0	0	0	0	519	481	
5	0	0	0	0	518	481	
6	0	0	0	0	517	481	
7	0	0	0	0	516	481	
8	0	0	0	0	516	481	
9	0	0	0	0	516	481	
10	0	0	0	0	516	481	
11	0	0	0	0	516	481	
12	0	0	0	0	516	481	
13	0	0	0	0	516	481	
14	0	0	0	0	516	481	
15	0	0	0	0	515	481	
0	0	0	0	0	515	481	
1	0	0	0	0	514	481	
2	0	0	0	0	512	481	
3	0	0	0	0	512	481	
4	0	0	0	0	510	481	
5	0	0	0	0	509	481	
6	0	0	0	0	508	481	
7	0	0	0	0	508	481	
8	0	0	0	0	507	481	
9	0	0	0	0	506	481	
10	0	0	0	0	505	481	
11	0	0	0	0	505	481	
12	0	0	0	0	504	481	
13	0	0	0	0	503	481	
14	0	0	0	0	502	481	
15	0	0	0	0	500	481	
0	0	0	0	0	499	481	
1	0	0	0	0	498	481	
2	0	0	0	0	497	481	
3	0	0	0	0	496	481	
4	0	0	0	0	496	481	
5	0	0	0	0	496	481	
6	0	0	0	0	496	481	
7	0	0	0	0	495	481	
8	0	0	0	0	494	481	
9	0	0	0	0	494	481	
10	0	0	0	0	494	481	
11	0	0	0	0	495	481	
12	0	0	0	0	495	481	
13	0	0	0	0	496	481	
14	0	0	0	0	496	481	
15	0	0	0	0	497	481	
0	0	0	0	0	497	481	
1	0	0	0	0	496	481	
2	0	0	0	0	496	481	
3	0	0	0	0	495	481	
4	0	0	0	0	495	481	
5	0	0	0	0	495	481	
6	0	0	0	0	495	481	
7	0	0	0	0	495	481	
8	0	0	0	0	495	481	
9	0	0	0	0	495	481	
10	0	0	0	0	496	481	
11	0	0	0	0	496	481	
12	0	0	0	0	497	481	
13	0	0	0	0	497	481	
14	0	0	0	0	497	481	
15	0	0	0	0	496	481	
0	0	0	0	0	496	481	
1	0	0	0	0	496	481	
2	0	0	0	0	496	481	
3	0	0	0	0	495	481	
4	0	0	0	0	495	481	
5	0	0	0	0	495	481	
6	0	0	0	0	495	481	
7	0	0	0	0	494	481	
8	0	0	0	0	495	481	
9	0	0	0	0	496	481	
10	0	0	0	0	496	481	
11	0	0	0	0	496	481	
12	0	0	0	0	497	481	
13	0	0	0	0	499	481	
14	0	0	0	0	499	481	
15	0	0	0	0	499	481	
0	0	0	0	0	501	481	
1	0	0	0	0	501	481	
2	0	0	0	0	501	481	
3	0	0	0	0	502	481	
4	0	0	0	0	502	481	
5	0	0	0	0	503	481	
6	0	0	0	0	503	481	
7	0	0	0	0	504	481	
8	0	0	0	0	504	481	
9	0	0	0	0	504	481	
10	0	0	0	0	505	481	
11	0	0	0	0	504	481	
12	0	0	0	0	504	481	
13	0	0	0	0	504	481	
14	0	0	0	0	505	481	
15	0	0	0	0	506	481	
0	0	0	0	0	505	481	
1	0	0	0	0	505	481	
2	0	0	0	0	505	481	
3	0	0	0	0	504	481	
4	0	0	0	0	503	481	
5	0	0	0	0	503	481	
6	0	0	0	0	503	481	
7	0	0	0	0	503	481	
8	0	0	0	0	504	481	
9	0	0	0	0	504	481	
10	0	0	0	0	505	481	
11	0	0	0	0	505	481	
12	0	0	0	0	507	481	
13	0	0	0	0	506	481	
14	0	0	0	0	507	481	
15	0	0	0	0	508	481	
0	0	0	0	0	509	481	
1	0	0	0	0	509	481	
2	0	0	0	0	509	481	
3	0	0	0	0	509	481	
4	0	0	0	0	510	481	
5	0	0	0	0	511	481	
6	0	0	0	0	512	481	
7	0	0	0	0	513	481	
8	0	0	0	0	513	481	
9	0	0	0	0	513	481	
10	0	0	0	0	513	481	
11	0	0	0	0	513	481	
12	0	0	0	0	514	481	
13	0	0	0	0	514	481	
14	0	0	0	0	515	481	
15	0	0	0	0	514	481	
0	0	0	0	0	514	481	
1	0	0	0	0	515	481	
2	0	0	0	0	515	481	
3	0	0	0	0	515	481	
4	0	0	0	0	515	481	
5	0	0	0	0	515	481	
6	0	0	0	0	515	481	
7	0	0	0	0	514	481	
8	0	0	0	0	514	480	
9	0	0	0	0	513	481	
10	0	0	0	0	513	481	
11	0	0	0	0	513	481	
12	0	0	0	0	513	481	
13	0	0	0	0	513	481	
14	0	0	0	0	514	481	
15	0	0	0	0	515	481	
0	0	0	0	0	515	481	
1	0	0	0	0	515	481	
2	0	0	0	0	516	481	
3	0	0	0	0	516	481	
4	0	0	0	0	517	481	
5	0	0	0	0	516	481	
6	0	0	0	0	516	481	
7	0	0	0	0	516	481	
8	0	0	0	0	516	481	
9	0	0	0	0	517	481	
10	0	0	0	0	516	481	
11	0	0	0	0	516	481	
12	0	0	0	0	517	481	
13	0	0	0	0	516	481	
14	0	0	0	0	516	481	
15	0	0	0	0	516	481	
0	0	0	0	0	515	481	
1	0	0	0	0	515	481	
2	0	0	0	0	515	481	
3	0	0	0	0	514	481	
4	0	0	0	0	514	481	
5	0	0	0	0	515	481	
6	0	0	0	0	515	481	
7	0	0	0	0	515	481	
8	0	0	0	0	516	481	
9	0	0	0	0	515	481	
10	0	0	0	0	515	481	
11	0	0	0	0	515	481	
12	0	0	0	0	515	481	
13	0	0	0	0	514	481	
14	0	0	0	0	513	481	
15	0	0	0	0	513	481	
0	0	0	0	0	513	481	
1	0	0	0	0	512	481	
2	0	0	0	0	513	481	
3	0	0	0	0	512	481	
4	0	0	0	0	512	481	
5	0	0	0	0	512	481	
6	0	0	0	0	513	481	
7	0	0	0	0	513	481	
8	0	0	0	0	513	481	
9	0	0	0	0	514	481	
10	0	0	0	0	514	481	
11	0	0	0	0	514	481	
12	0	0	0	0	514	481	
13	0	0	0	0	514	481	
14	0	0	0	0	514	481	
15	0	0	0	0	513	481	
0	0	0	0	0	514	481	
1	0	0	0	0	514	481	
2	0	0	0	0	513	481	
3	0	0	0	0	512	481	
4	0	0	0	0	511	481	
5	0	0	0	0	511	481	
6	0	0	0	0	511	481	
7	0	0	0	0	512	481	
8	0	0	0	0	512	481	
9	0	0	0	0	512	481	
10	0	0	0	0	512	481	
11	0	0	0	0	512	481	
12	0	0	0	0	512	481	
13	0	0	0	0	512	481	
14	0	0	0	0	512	481	
15	0	0	0	0	512	481	
0	0	0	0	0	512	481	
1	0	0	0	0	511	481	
2	0	0	0	0	511	481	
3	0	0	0	0	511	481	
4	0	0	0	0	511	481	
5	0	0	0	0	511	481	
6	0	0	0	0	511	481	
7	0	0	0	0	511	481	
8	0	0	0	0	512	481	
9	0	0	0	0	512	481	
10	0	0	0	0	512	481	
11	0	0	0	0	513	481	
12	0	0	0	0	512	481	
13	0	0	0	0	512	481	
14	0	0	0	0	512	481	
15	0	0	0	0	513	481	
0	0	0	0	0	513	481	
1	0	0	0	0	513	481	
2	0	0	0	0	513	481	
3	0	0	0	0	513	481	
4	0	0	0	0	514	481	
5	0	0	0	0	515	481	
6	0	0	0	0	516	481	
7	0	0	0	0	516	481	
8	0	0	0	0	516	481	
9	0	0	0	0	516	481	
10	0	0	0	0	516	481	
11	0	0	0	0	516	481	
12	0	0	0	0	516	481	
13	0	0	0	0	516	481	
14	0	0	0	0	515	481	
15	0	0	0	0	515	481	
0	0	0	0	0	515	481	
1	0	0	0	0	515	481	
2	0	0	0	0	515	481	
3	0	0	0	0	515	481	
4	0	0	0	0	515	481	
5	0	0	0	0	515	481	
6	0	0	0	0	515	481	
7	0	0	0	0	514	481	
8	0	0	0	0	513	481	
9	0	0	0	0	512	481	
10	0	0	0	0	513	481	
11	0	0	0	0	512	481	
12	0	0	0	0	512	481	
13	0	0	0	0	512	481	
14	0	0	0	0	512	481	
15	0	0	0	0	512	481	
0	0	0	0	0	512	481	
1	0	0	0	0	513	481	
2	0	0	0	0	514	481	
3	0	0	0	0	516	481	
4	0	0	0	0	516	481	
5	0	0	0	0	518	481	
6	0	0	0	0	518	481	
7	0	0	0	0	517	481	
8	0	0	0	0	518	481	
9	0	0	0	0	519	481	
10	0	0	0	0	520	481	
11	0	0	0	0	521	481	
12	0	0	0	0	519	481	
13	0	0	0	0	519	481	
14	0	0	0	0	519	481	
15	0	0	0	0	519	481	
0	0	0	0	0	519	481	
1	0	0	0	0	518	481	
2	0	0	0	0	516	481	
3	0	0	0	0	515	481	
4	0	0	0	0	514	481	
5	0	0	0	0	514	481	
6	0	0	0	0	515	481	
7	0	0	0	0	515	481	
8	0	0	0	0	514	481	
9	0	0	0	0	514	481	
10	0	0	0	0	514	481	
11	0	0	0	0	513	481	
12	0	0	0	0	513	481	
13	0	0	0	0	513	481	
14	0	0	0	0	513	481	
15	0	0	0	0	513	481	
0	0	0	0	0	512	481	
1	0	0	0	0	512	481	
2	0	0	0	0	512	481	
3	0	0	0	0	512	481	
4	0	0	0	0	511	481	
5	0	0	0	0	511	481	
6	0	0	0	0	511	481	
7	0	0	0	0	512	481	
8	0	0	0	0	513	481	
9	0	0	0	0	513	481	
10	0	0	0	0	514	481	
11	0	0	0	0	514	481	
12	0	0	0	0	515	481	
13	0	0	0	0	515	481	
14	0	0	0	0	516	481	
15	0	0	0	0	515	481	
0	0	0	0	0	516	481	
1	0	0	0	0	515	481	
2	0	0	0	0	513	481	
3	0	0	0	0	512	481	
4	0	0	0	0	512	481	
5	0	0	0	0	513	481	
6	0	0	0	0	513	481	
7	0	0	0	0	513	481	
8	0	0	0	0	513	481	
9	0	0	0	0	513	481	
10	0	0	0	0	514	481	
11	0	0	0	0	515	481	
12	0	0	0	0	515	481	
13	0	0	0	0	515	481	
14	0	0	0	0	515	481	
15	0	0	0	0	515	481	
0	0	0	0	0	515	481	
1	0	0	0	0	514	481	
2	0	0	0	0	514	481	
3	0	0	0	0	513	481	
4	0	0	0	0	515	481	
5	0	0	0	0	515	481	
6	0	0	0	0	515	481	
7	0	0	0	0	515	481	
8	0	0	0	0	516	481	
9	0	0	0	0	516	481	
10	0	0	0	0	516	481	
11	0	0	0	0	516	481	
12	0	0	0	0	518	481	
13	0	0	0	0	518	481	
14	0	0	0	0	518	481	
15	0	0	0	0	517	481	
0	0	0	0	0	515	481	
1	0	0	0	0	514	481	
2	0	0	0	0	515	481	
3	0	0	0	0	515	481	
4	0	0	0	0	514	481	
5	0	0	0	0	514	481	
6	0	0	0	0	515	481	
7	0	0	0	0	516	481	
8	0	0	0	0	516	481	
9	0	0	0	0	517	481	
10	0	0	0	0	518	481	
11	0	0	0	0	518	481	
12	0	0	0	0	519	481	
13	0	0	0	0	518	481	
14	0	0	0	0	516	481	
15	0	0	0	0	517	481	
0	0	0	0	0	516	481	
1	0	0	0	0	515	481	
2	0	0	0	0	515	481	
3	0	0	0	0	515	481	
4	0	0	0	0	515	481	
5	0	0	0	0	515	481	
6	0	0	0	0	515	481	
7	0	0	0	0	515	481	
8	0	0	0	0	515	481	
9	0	0	0	0	517	481	
10	0	0	0	0	518	481	
11	0	0	0	0	519	481	
12	0	0	0	0	519	481	
13	0	0	0	0	519	481	
14	0	0	0	0	519	481	
15	0	0	0	0	521	481	
0	0	0	0	0	522	481	
1	0	0	0	0	524	481	
2	0	0	0	0	525	481	
3	0	0	0	0	525	481	
4	0	0	0	0	526	481	
5	0	0	0	0	527	481	
6	0	0	0	0	528	481	
7	0	0	0	0	529	481	
8	0	0	0	0	530	481	
9	0	0	0	0	531	481	
10	0	0	0	0	531	481	
11	0	0	0	0	533	481	
12	0	0	0	0	535	481	
13	0	0	0	0	534	481	
14	0	0	0	0	534	481	
15	0	0	0	0	534	481	
0	0	0	0	0	534	481	
1	0	0	0	0	533	481	
2	0	0	0	0	533	481	
3	0	0	0	0	534	481	
4	0	0	0	0	534	481	
5	0	0	0	0	534	481	
6	0	0	0	0	534	481	
7	0	0	0	0	534	481	
8	0	0	0	0	535	481	
9	0	0	0	0	535	481	
10	0	0	0	0	536	481	
11	0	0	0	0	535	481	
12	0	0	0	0	536	481	
13	0	0	0	0	535	481	
14	0	0	0	0	536	481	
15	0	0	0	0	537	481	
0	0	0	0	0	539	481	
1	0	0	0	0	540	481	
2	0	0	0	0	541	481	
3	0	0	0	0	543	481	
4	0	0	0	0	543	481	
5	0	0	0	0	544	481	
6	0	0	0	0	546	481	
7	0	0	0	0	548	481	
8	0	0	0	0	549	481	
9	0	0	0	0	549	481	
10	0	0	0	0	548	481	
11	0	0	0	0	547	481	
12	0	0	0	0	546	481	
13	0	0	0	0	545	481	
14	0	0	0	0	544	481	
15	0	0	0	0	544	481	
0	0	0	0	0	543	481	
1	0	0	0	0	541	481	
2	0	0	0	0	540	481	
3	0	0	0	0	537	481	
4	0	0	0	0	535	481	
5	0	0	0	0	534	481	
6	0	0	0	0	532	481	
7	0	0	0	0	531	481	
8	0	0	0	0	530	481	
9	0	0	0	0	529	481	
10	0	0	0	0	527	481	
11	0	0	0	0	526	481	
12	0	0	0	0	525	481	
13	0	0	0	0	524	481	
14	0	0	0	0	522	481	
15	0	0	0	0	519	481	
0	0	0	0	0	516	481	
1	0	0	0	0	514	481	
2	0	0	0	0	512	481	
3	0	0	0	0	508	481	
4	0	0	0	0	504	481	
5	0	0	0	0	500	481	
6	0	0	0	0	498	481	
7	0	0	0	0	494	481	
8	0	0	0	0	492	481	
9	0	0	0	0	489	481	
10	0	0	0	0	488	481	
11	0	0	0	0	486	481	
12	0	0	0	0	484	481	
13	0	0	0	0	482	481	
14	0	0	0	0	481	481	
15	0	0	0	0	482	481	
0	0	0	0	0	482	481	
1	0	0	0	0	481	481	
2	0	0	0	0	480	481	
3	0	0	0	0	480	481	
4	0	0	0	0	480	481	
5	0	0	0	0	479	481	
6	0	0	0	0	479	481	
7	0	0	0	0	479	481	
8	0	0	0	0	479	481	
9	0	0	0	0	479	481	
10	0	0	0	0	480	481	
11	0	0	0	0	480	481	
12	0	0	0	0	481	481	
13	0	0	0	0	482	481	
14	0	0	0	0	482	481	
15	0	0	0	0	483	481	
0	0	0	0	0	485	481	
1	0	0	0	0	486	481	
2	0	0	0	0	486	481	
3	0	0	0	0	486	481	
4	0	0	0	0	487	481	
5	0	0	0	0	487	481	
6	0	0	0	0	486	481	
7	0	0	0	0	486	481	
8	0	0	0	0	487	481	
9	0	0	0	0	487	481	
10	0	0	0	0	487	481	
11	0	0	0	0	487	481	
12	0	0	0	0	487	481	
13	0	0	0	0	487	481	
14	0	0	0	0	487	481	
15	0	0	0	0	487	481	
0	0	0	0	0	487	481	
1	0	0	0	0	487	481	
2	0	0	0	0	489	481	
3	0	0	0	0	488	481	
