# OpenSignals Text File Format. Version 1
# {"98:D3:71:FE:37:4F": {"position": 0, "device": "bitalino_rev", "device name": "98:D3:71:FE:37:4F", "device connection": "BTH98:D3:71:FE:37:4F", "sampling rate": 1000, "resolution": [4, 1, 1, 1, 1, 10, 10], "firmware version": 1282, "comments": "", "keywords": "", "mode": 0, "sync interval": 2, "date": "2026-6-12", "time": "15:49:55.416", "channels": [1, 2], "sensor": ["ECGBIT", "EDABITREV"], "label": ["A1", "A2"], "column": ["nSeq", "I1", "I2", "O1", "O2", "A1", "A2"], "special": [{}, {}], "digital IO": [0, 0, 1, 1]}}
# EndOfHeader
0	0	0	0	0	549	1020	
1	0	0	0	0	546	1020	
2	0	0	0	0	543	1020	
3	0	0	0	0	542	1020	
4	0	0	0	0	540	1020	
5	0	0	0	0	538	1020	
6	0	0	0	0	536	1020	
7	0	0	0	0	533	1020	
8	0	0	0	0	532	1020	
9	0	0	0	0	530	1020	
10	0	0	0	0	527	1020	
11	0	0	0	0	523	1020	
12	0	0	0	0	520	1020	
13	0	0	0	0	519	1020	
14	0	0	0	0	516	1020	
15	0	0	0	0	514	1020	
0	0	0	0	0	511	1020	
1	0	0	0	0	508	1020	
2	0	0	0	0	504	1020	
3	0	0	0	0	501	1020	
4	0	0	0	0	497	1020	
5	0	0	0	0	495	1020	
6	0	0	0	0	492	1020	
7	0	0	0	0	489	1020	
8	0	0	0	0	485	1020	
9	0	0	0	0	481	1020	
10	0	0	0	0	479	1020	
11	0	0	0	0	475	1020	
12	0	0	0	0	473	1020	
13	0	0	0	0	471	1020	
14	0	0	0	0	469	1020	
15	0	0	0	0	465	1020	
0	0	0	0	0	463	1020	
1	0	0	0	0	462	1020	
2	0	0	0	0	459	1020	
3	0	0	0	0	455	1020	
4	0	0	0	0	454	1020	
5	0	0	0	0	452	1020	
6	0	0	0	0	450	1020	
7	0	0	0	0	448	1020	
8	0	0	0	0	447	1020	
9	0	0	0	0	445	1020	
10	0	0	0	0	445	1020	
11	0	0	0	0	444	1020	
12	0	0	0	0	441	1020	
13	0	0	0	0	438	1020	
14	0	0	0	0	436	1020	
15	0	0	0	0	436	1020	
0	0	0	0	0	435	1020	
1	0	0	0	0	434	1020	
2	0	0	0	0	433	1020	
3	0	0	0	0	433	1020	
4	0	0	0	0	431	1020	
5	0	0	0	0	430	1020	
6	0	0	0	0	432	1020	
7	0	0	0	0	432	1020	
8	0	0	0	0	432	1020	
9	0	0	0	0	432	1020	
10	0	0	0	0	432	1020	
11	0	0	0	0	432	1020	
12	0	0	0	0	432	1020	
13	0	0	0	0	432	1020	
14	0	0	0	0	433	1020	
15	0	0	0	0	432	1020	
0	0	0	0	0	432	1020	
1	0	0	0	0	432	1020	
2	0	0	0	0	432	1020	
3	0	0	0	0	432	1020	
4	0	0	0	0	432	1020	
5	0	0	0	0	432	1020	
6	0	0	0	0	432	1020	
7	0	0	0	0	432	1020	
8	0	0	0	0	432	1020	
9	0	0	0	0	433	1020	
10	0	0	0	0	434	1020	
11	0	0	0	0	434	1020	
12	0	0	0	0	434	1020	
13	0	0	0	0	435	1020	
14	0	0	0	0	435	1020	
15	0	0	0	0	435	1020	
0	0	0	0	0	436	1020	
1	0	0	0	0	436	1020	
2	0	0	0	0	438	1020	
3	0	0	0	0	438	1020	
4	0	0	0	0	438	1020	
5	0	0	0	0	439	1020	
6	0	0	0	0	439	1020	
7	0	0	0	0	441	1020	
8	0	0	0	0	443	1020	
9	0	0	0	0	444	1020	
10	0	0	0	0	444	1020	
11	0	0	0	0	446	1020	
12	0	0	0	0	447	1020	
13	0	0	0	0	448	1020	
14	0	0	0	0	449	1020	
15	0	0	0	0	449	1020	
0	0	0	0	0	451	1020	
1	0	0	0	0	451	1020	
2	0	0	0	0	452	1020	
3	0	0	0	0	452	1020	
4	0	0	0	0	453	1020	
5	0	0	0	0	454	1020	
6	0	0	0	0	454	1020	
7	0	0	0	0	455	1020	
8	0	0	0	0	455	1020	
9	0	0	0	0	457	1020	
10	0	0	0	0	459	1020	
11	0	0	0	0	460	1020	
12	0	0	0	0	460	1020	
13	0	0	0	0	461	1020	
14	0	0	0	0	462	1020	
15	0	0	0	0	463	1020	
0	0	0	0	0	463	1020	
1	0	0	0	0	464	1020	
2	0	0	0	0	464	1020	
3	0	0	0	0	465	1020	
4	0	0	0	0	465	1020	
5	0	0	0	0	466	1020	
6	0	0	0	0	468	1020	
7	0	0	0	0	469	1020	
8	0	0	0	0	471	1020	
9	0	0	0	0	473	1020	
10	0	0	0	0	473	1020	
11	0	0	0	0	474	1020	
12	0	0	0	0	474	1020	
13	0	0	0	0	475	1020	
14	0	0	0	0	474	1020	
15	0	0	0	0	475	1020	
0	0	0	0	0	475	1020	
1	0	0	0	0	475	1020	
2	0	0	0	0	476	1020	
3	0	0	0	0	477	1020	
4	0	0	0	0	478	1020	
5	0	0	0	0	479	1020	
6	0	0	0	0	481	1020	
7	0	0	0	0	483	1020	
8	0	0	0	0	484	1020	
9	0	0	0	0	485	1020	
10	0	0	0	0	486	1020	
11	0	0	0	0	487	1020	
12	0	0	0	0	488	1020	
13	0	0	0	0	489	1020	
14	0	0	0	0	490	1020	
15	0	0	0	0	490	1020	
0	0	0	0	0	491	1020	
1	0	0	0	0	490	1020	
2	0	0	0	0	491	1020	
3	0	0	0	0	491	1020	
4	0	0	0	0	491	1020	
5	0	0	0	0	491	1020	
6	0	0	0	0	491	1020	
7	0	0	0	0	491	1020	
8	0	0	0	0	491	1020	
9	0	0	0	0	492	1020	
10	0	0	0	0	494	1020	
11	0	0	0	0	496	1020	
12	0	0	0	0	497	1020	
13	0	0	0	0	497	1020	
14	0	0	0	0	498	1020	
15	0	0	0	0	499	1020	
0	0	0	0	0	499	1020	
1	0	0	0	0	499	1020	
2	0	0	0	0	499	1020	
3	0	0	0	0	500	1020	
4	0	0	0	0	501	1020	
5	0	0	0	0	502	1020	
6	0	0	0	0	502	1020	
7	0	0	0	0	503	1020	
8	0	0	0	0	503	1020	
9	0	0	0	0	503	1020	
10	0	0	0	0	503	1020	
11	0	0	0	0	504	1020	
12	0	0	0	0	504	1020	
13	0	0	0	0	504	1020	
14	0	0	0	0	505	1020	
15	0	0	0	0	506	1020	
0	0	0	0	0	507	1020	
1	0	0	0	0	505	1020	
2	0	0	0	0	505	1020	
3	0	0	0	0	506	1020	
4	0	0	0	0	506	1020	
5	0	0	0	0	506	1020	
6	0	0	0	0	506	1020	
7	0	0	0	0	506	1020	
8	0	0	0	0	507	1020	
9	0	0	0	0	507	1020	
10	0	0	0	0	507	1020	
11	0	0	0	0	506	1020	
12	0	0	0	0	507	1020	
13	0	0	0	0	507	1020	
14	0	0	0	0	508	1020	
15	0	0	0	0	509	1020	
0	0	0	0	0	510	1020	
1	0	0	0	0	511	1020	
2	0	0	0	0	510	1020	
3	0	0	0	0	510	1020	
4	0	0	0	0	511	1020	
5	0	0	0	0	511	1020	
6	0	0	0	0	509	1020	
7	0	0	0	0	509	1020	
8	0	0	0	0	510	1020	
9	0	0	0	0	510	1020	
10	0	0	0	0	509	1020	
11	0	0	0	0	510	1020	
12	0	0	0	0	510	1020	
13	0	0	0	0	511	1020	
14	0	0	0	0	512	1020	
15	0	0	0	0	512	1020	
0	0	0	0	0	511	1020	
1	0	0	0	0	512	1020	
2	0	0	0	0	513	1020	
3	0	0	0	0	511	1020	
4	0	0	0	0	512	1020	
5	0	0	0	0	512	1020	
6	0	0	0	0	510	1020	
7	0	0	0	0	510	1020	
8	0	0	0	0	509	1020	
9	0	0	0	0	509	1020	
10	0	0	0	0	509	1020	
11	0	0	0	0	508	1020	
12	0	0	0	0	508	1020	
13	0	0	0	0	508	1020	
14	0	0	0	0	508	1020	
15	0	0	0	0	509	1020	
0	0	0	0	0	508	1020	
1	0	0	0	0	509	1020	
2	0	0	0	0	509	1020	
3	0	0	0	0	508	1020	
4	0	0	0	0	507	1020	
5	0	0	0	0	507	1020	
6	0	0	0	0	507	1020	
7	0	0	0	0	506	1020	
8	0	0	0	0	504	1020	
9	0	0	0	0	505	1020	
10	0	0	0	0	504	1020	
11	0	0	0	0	504	1020	
12	0	0	0	0	503	1020	
13	0	0	0	0	504	1020	
14	0	0	0	0	505	1020	
15	0	0	0	0	505	1020	
0	0	0	0	0	505	1020	
1	0	0	0	0	504	1020	
2	0	0	0	0	505	1020	
3	0	0	0	0	505	1020	
4	0	0	0	0	504	1020	
5	0	0	0	0	505	1020	
6	0	0	0	0	507	1020	
7	0	0	0	0	505	1020	
8	0	0	0	0	504	1020	
9	0	0	0	0	505	1020	
10	0	0	0	0	505	1020	
11	0	0	0	0	504	1020	
12	0	0	0	0	504	1020	
13	0	0	0	0	504	1020	
14	0	0	0	0	505	1020	
15	0	0	0	0	506	1020	
0	0	0	0	0	507	1020	
1	0	0	0	0	508	1020	
2	0	0	0	0	508	1020	
3	0	0	0	0	508	1020	
4	0	0	0	0	508	1020	
5	0	0	0	0	510	1020	
6	0	0	0	0	510	1020	
7	0	0	0	0	510	1020	
8	0	0	0	0	509	1020	
9	0	0	0	0	509	1020	
10	0	0	0	0	508	1020	
11	0	0	0	0	507	1020	
12	0	0	0	0	507	1020	
13	0	0	0	0	506	1020	
14	0	0	0	0	505	1020	
15	0	0	0	0	505	1020	
0	0	0	0	0	505	1020	
1	0	0	0	0	506	1020	
2	0	0	0	0	505	1020	
3	0	0	0	0	506	1020	
4	0	0	0	0	507	1020	
5	0	0	0	0	507	1020	
6	0	0	0	0	508	1020	
7	0	0	0	0	509	1020	
8	0	0	0	0	509	1020	
9	0	0	0	0	509	1020	
10	0	0	0	0	509	1020	
11	0	0	0	0	509	1020	
12	0	0	0	0	509	1020	
13	0	0	0	0	509	1020	
14	0	0	0	0	508	1020	
15	0	0	0	0	508	1020	
0	0	0	0	0	509	1020	
1	0	0	0	0	510	1020	
2	0	0	0	0	510	1020	
3	0	0	0	0	510	1020	
4	0	0	0	0	510	1020	
5	0	0	0	0	511	1020	
6	0	0	0	0	510	1020	
7	0	0	0	0	510	1020	
8	0	0	0	0	510	1020	
9	0	0	0	0	508	1020	
10	0	0	0	0	509	1020	
11	0	0	0	0	509	1020	
12	0	0	0	0	510	1020	
13	0	0	0	0	511	1020	
14	0	0	0	0	513	1020	
15	0	0	0	0	514	1020	
0	0	0	0	0	515	1020	
1	0	0	0	0	518	1020	
2	0	0	0	0	520	1020	
3	0	0	0	0	523	1020	
4	0	0	0	0	525	1020	
5	0	0	0	0	527	1020	
6	0	0	0	0	529	1020	
7	0	0	0	0	531	1020	
8	0	0	0	0	532	1020	
9	0	0	0	0	532	1020	
10	0	0	0	0	534	1020	
11	0	0	0	0	532	1020	
12	0	0	0	0	531	1020	
13	0	0	0	0	531	1020	
14	0	0	0	0	530	1020	
15	0	0	0	0	529	1020	
0	0	0	0	0	529	1020	
1	0	0	0	0	530	1020	
2	0	0	0	0	531	1020	
3	0	0	0	0	531	1020	
4	0	0	0	0	532	1020	
5	0	0	0	0	534	1020	
6	0	0	0	0	536	1020	
7	0	0	0	0	539	1020	
8	0	0	0	0	541	1020	
9	0	0	0	0	545	1020	
10	0	0	0	0	548	1020	
11	0	0	0	0	548	1020	
12	0	0	0	0	551	1020	
13	0	0	0	0	552	1020	
14	0	0	0	0	554	1020	
15	0	0	0	0	555	1020	
0	0	0	0	0	555	1020	
1	0	0	0	0	553	1020	
2	0	0	0	0	552	1020	
3	0	0	0	0	551	1020	
4	0	0	0	0	550	1020	
5	0	0	0	0	548	1020	
6	0	0	0	0	547	1020	
7	0	0	0	0	546	1020	
8	0	0	0	0	544	1020	
9	0	0	0	0	542	1020	
10	0	0	0	0	541	1020	
11	0	0	0	0	541	1020	
12	0	0	0	0	542	1020	
13	0	0	0	0	540	1020	
14	0	0	0	0	539	1020	
15	0	0	0	0	539	1020	
0	0	0	0	0	538	1020	
1	0	0	0	0	537	1020	
2	0	0	0	0	537	1020	
3	0	0	0	0	535	1020	
4	0	0	0	0	533	1020	
5	0	0	0	0	532	1020	
6	0	0	0	0	531	1020	
7	0	0	0	0	529	1020	
8	0	0	0	0	530	1020	
9	0	0	0	0	530	1020	
10	0	0	0	0	530	1020	
11	0	0	0	0	531	1020	
12	0	0	0	0	531	1020	
13	0	0	0	0	531	1020	
14	0	0	0	0	530	1020	
15	0	0	0	0	528	1020	
0	0	0	0	0	526	1020	
1	0	0	0	0	523	1020	
2	0	0	0	0	520	1020	
3	0	0	0	0	517	1020	
4	0	0	0	0	515	1020	
5	0	0	0	0	512	1020	
6	0	0	0	0	510	1020	
7	0	0	0	0	509	1020	
8	0	0	0	0	506	1020	
9	0	0	0	0	504	1020	
10	0	0	0	0	502	1020	
11	0	0	0	0	500	1020	
12	0	0	0	0	499	1020	
13	0	0	0	0	497	1020	
14	0	0	0	0	494	1020	
15	0	0	0	0	492	1020	
0	0	0	0	0	490	1020	
1	0	0	0	0	489	1020	
2	0	0	0	0	488	1020	
3	0	0	0	0	488	1020	
4	0	0	0	0	488	1020	
5	0	0	0	0	486	1020	
6	0	0	0	0	486	1020	
7	0	0	0	0	486	1020	
8	0	0	0	0	485	1020	
9	0	0	0	0	483	1020	
10	0	0	0	0	483	1020	
11	0	0	0	0	483	1020	
12	0	0	0	0	481	1020	
13	0	0	0	0	481	1020	
14	0	0	0	0	482	1020	
15	0	0	0	0	481	1020	
0	0	0	0	0	481	1020	
1	0	0	0	0	482	1020	
2	0	0	0	0	482	1020	
3	0	0	0	0	481	1020	
4	0	0	0	0	481	1020	
5	0	0	0	0	480	1020	
6	0	0	0	0	480	1020	
7	0	0	0	0	480	1020	
8	0	0	0	0	480	1020	
9	0	0	0	0	480	1020	
10	0	0	0	0	481	1020	
11	0	0	0	0	483	1020	
12	0	0	0	0	483	1020	
13	0	0	0	0	483	1020	
14	0	0	0	0	483	1020	
15	0	0	0	0	483	1020	
0	0	0	0	0	485	1020	
1	0	0	0	0	486	1020	
2	0	0	0	0	486	1020	
3	0	0	0	0	486	1020	
4	0	0	0	0	487	1020	
5	0	0	0	0	487	1020	
6	0	0	0	0	487	1020	
7	0	0	0	0	488	1020	
8	0	0	0	0	487	1020	
9	0	0	0	0	486	1020	
10	0	0	0	0	486	1020	
11	0	0	0	0	486	1020	
12	0	0	0	0	487	1020	
13	0	0	0	0	487	1020	
14	0	0	0	0	486	1020	
15	0	0	0	0	483	1020	
0	0	0	0	0	479	1020	
1	0	0	0	0	473	1020	
2	0	0	0	0	464	1020	
3	0	0	0	0	455	1020	
4	0	0	0	0	447	1020	
5	0	0	0	0	439	1020	
6	0	0	0	0	435	1020	
7	0	0	0	0	430	1020	
8	0	0	0	0	427	1020	
9	0	0	0	0	425	1020	
10	0	0	0	0	428	1020	
11	0	0	0	0	431	1020	
12	0	0	0	0	436	1020	
13	0	0	0	0	443	1020	
14	0	0	0	0	450	1020	
15	0	0	0	0	459	1020	
0	0	0	0	0	469	1020	
1	0	0	0	0	480	1020	
2	0	0	0	0	493	1020	
3	0	0	0	0	508	1020	
4	0	0	0	0	525	1020	
5	0	0	0	0	547	1020	
6	0	0	0	0	572	1020	
7	0	0	0	0	604	1020	
8	0	0	0	0	641	1020	
9	0	0	0	0	680	1020	
10	0	0	0	0	723	1020	
11	0	0	0	0	770	1020	
12	0	0	0	0	821	1020	
13	0	0	0	0	872	1020	
14	0	0	0	0	921	1020	
15	0	0	0	0	967	1020	
0	0	0	0	0	1006	1020	
1	0	0	0	0	1022	1020	
2	0	0	0	0	1022	1020	
3	0	0	0	0	1022	1020	
4	0	0	0	0	1022	1020	
5	0	0	0	0	1022	1020	
6	0	0	0	0	1015	1020	
7	0	0	0	0	987	1020	
8	0	0	0	0	952	1020	
9	0	0	0	0	914	1020	
10	0	0	0	0	874	1020	
11	0	0	0	0	830	1020	
12	0	0	0	0	781	1020	
13	0	0	0	0	730	1020	
14	0	0	0	0	679	1020	
15	0	0	0	0	631	1020	
0	0	0	0	0	586	1020	
1	0	0	0	0	547	1020	
2	0	0	0	0	511	1020	
3	0	0	0	0	479	1020	
4	0	0	0	0	451	1020	
5	0	0	0	0	429	1020	
6	0	0	0	0	411	1020	
7	0	0	0	0	397	1020	
8	0	0	0	0	387	1020	
9	0	0	0	0	379	1020	
10	0	0	0	0	376	1020	
11	0	0	0	0	374	1020	
12	0	0	0	0	375	1020	
13	0	0	0	0	380	1020	
14	0	0	0	0	387	1020	
15	0	0	0	0	395	1020	
0	0	0	0	0	400	1020	
1	0	0	0	0	404	1020	
2	0	0	0	0	408	1020	
3	0	0	0	0	408	1020	
4	0	0	0	0	410	1020	
5	0	0	0	0	412	1020	
6	0	0	0	0	415	1020	
7	0	0	0	0	418	1020	
8	0	0	0	0	420	1020	
9	0	0	0	0	423	1020	
10	0	0	0	0	425	1020	
11	0	0	0	0	428	1020	
12	0	0	0	0	432	1020	
13	0	0	0	0	434	1020	
14	0	0	0	0	435	1020	
15	0	0	0	0	438	1020	
0	0	0	0	0	439	1020	
1	0	0	0	0	440	1020	
2	0	0	0	0	440	1020	
3	0	0	0	0	440	1020	
4	0	0	0	0	441	1020	
5	0	0	0	0	441	1020	
6	0	0	0	0	442	1020	
7	0	0	0	0	443	1020	
8	0	0	0	0	443	1020	
9	0	0	0	0	444	1020	
10	0	0	0	0	445	1020	
11	0	0	0	0	446	1020	
12	0	0	0	0	448	1020	
13	0	0	0	0	450	1020	
14	0	0	0	0	451	1020	
15	0	0	0	0	451	1020	
0	0	0	0	0	452	1020	
1	0	0	0	0	452	1020	
2	0	0	0	0	454	1020	
3	0	0	0	0	452	1020	
4	0	0	0	0	452	1020	
5	0	0	0	0	453	1020	
6	0	0	0	0	454	1020	
7	0	0	0	0	456	1020	
8	0	0	0	0	458	1020	
9	0	0	0	0	458	1020	
10	0	0	0	0	461	1020	
11	0	0	0	0	463	1020	
12	0	0	0	0	465	1020	
13	0	0	0	0	465	1020	
14	0	0	0	0	466	1020	
15	0	0	0	0	467	1020	
0	0	0	0	0	467	1020	
1	0	0	0	0	467	1020	
2	0	0	0	0	469	1020	
3	0	0	0	0	471	1020	
4	0	0	0	0	473	1020	
5	0	0	0	0	473	1020	
6	0	0	0	0	475	1020	
7	0	0	0	0	475	1020	
8	0	0	0	0	476	1020	
9	0	0	0	0	477	1020	
10	0	0	0	0	480	1020	
11	0	0	0	0	481	1020	
12	0	0	0	0	482	1020	
13	0	0	0	0	483	1020	
14	0	0	0	0	484	1020	
15	0	0	0	0	486	1020	
0	0	0	0	0	486	1020	
1	0	0	0	0	488	1020	
2	0	0	0	0	490	1020	
3	0	0	0	0	492	1020	
4	0	0	0	0	493	1020	
5	0	0	0	0	493	1020	
6	0	0	0	0	494	1020	
7	0	0	0	0	496	1020	
8	0	0	0	0	497	1020	
9	0	0	0	0	497	1020	
10	0	0	0	0	498	1020	
11	0	0	0	0	499	1020	
12	0	0	0	0	501	1020	
13	0	0	0	0	503	1020	
14	0	0	0	0	504	1020	
15	0	0	0	0	505	1020	
0	0	0	0	0	506	1020	
1	0	0	0	0	507	1020	
2	0	0	0	0	507	1020	
3	0	0	0	0	507	1020	
4	0	0	0	0	508	1020	
5	0	0	0	0	510	1020	
6	0	0	0	0	511	1020	
7	0	0	0	0	512	1020	
8	0	0	0	0	512	1020	
9	0	0	0	0	512	1020	
10	0	0	0	0	513	1020	
11	0	0	0	0	514	1020	
12	0	0	0	0	515	1020	
13	0	0	0	0	516	1020	
14	0	0	0	0	518	1020	
15	0	0	0	0	520	1020	
0	0	0	0	0	522	1020	
1	0	0	0	0	523	1020	
2	0	0	0	0	524	1020	
3	0	0	0	0	525	1020	
4	0	0	0	0	525	1020	
5	0	0	0	0	526	1020	
6	0	0	0	0	526	1020	
7	0	0	0	0	526	1020	
8	0	0	0	0	527	1020	
9	0	0	0	0	529	1020	
10	0	0	0	0	530	1020	
11	0	0	0	0	532	1020	
12	0	0	0	0	533	1020	
13	0	0	0	0	535	1020	
14	0	0	0	0	536	1020	
15	0	0	0	0	537	1020	
0	0	0	0	0	539	1020	
1	0	0	0	0	540	1020	
2	0	0	0	0	541	1020	
3	0	0	0	0	541	1020	
4	0	0	0	0	542	1020	
5	0	0	0	0	542	1020	
6	0	0	0	0	543	1020	
7	0	0	0	0	544	1020	
8	0	0	0	0	546	1020	
9	0	0	0	0	546	1020	
10	0	0	0	0	547	1020	
11	0	0	0	0	548	1020	
12	0	0	0	0	550	1020	
13	0	0	0	0	551	1020	
14	0	0	0	0	552	1020	
15	0	0	0	0	553	1020	
0	0	0	0	0	556	1020	
1	0	0	0	0	558	1020	
2	0	0	0	0	560	1020	
3	0	0	0	0	562	1020	
4	0	0	0	0	563	1020	
5	0	0	0	0	564	1020	
6	0	0	0	0	566	1020	
7	0	0	0	0	568	1020	
8	0	0	0	0	569	1020	
9	0	0	0	0	570	1020	
10	0	0	0	0	570	1020	
11	0	0	0	0	571	1020	
12	0	0	0	0	572	1020	
13	0	0	0	0	573	1020	
14	0	0	0	0	575	1020	
15	0	0	0	0	575	1020	
0	0	0	0	0	575	1020	
1	0	0	0	0	576	1020	
2	0	0	0	0	577	1020	
3	0	0	0	0	577	1020	
4	0	0	0	0	578	1020	
5	0	0	0	0	579	1020	
6	0	0	0	0	579	1020	
7	0	0	0	0	579	1020	
8	0	0	0	0	578	1020	
9	0	0	0	0	578	1020	
10	0	0	0	0	579	1020	
11	0	0	0	0	579	1020	
12	0	0	0	0	579	1020	
13	0	0	0	0	578	1020	
14	0	0	0	0	577	1020	
15	0	0	0	0	576	1020	
0	0	0	0	0	575	1020	
1	0	0	0	0	575	1020	
2	0	0	0	0	575	1020	
3	0	0	0	0	575	1020	
4	0	0	0	0	573	1020	
5	0	0	0	0	572	1020	
6	0	0	0	0	572	1020	
7	0	0	0	0	571	1020	
8	0	0	0	0	570	1020	
9	0	0	0	0	570	1020	
10	0	0	0	0	568	1020	
11	0	0	0	0	567	1020	
12	0	0	0	0	565	1020	
13	0	0	0	0	563	1020	
14	0	0	0	0	561	1020	
15	0	0	0	0	558	1020	
0	0	0	0	0	556	1020	
1	0	0	0	0	553	1020	
2	0	0	0	0	551	1020	
3	0	0	0	0	548	1020	
4	0	0	0	0	545	1020	
5	0	0	0	0	543	1020	
6	0	0	0	0	539	1020	
7	0	0	0	0	536	1020	
8	0	0	0	0	533	1020	
9	0	0	0	0	530	1020	
10	0	0	0	0	527	1020	
11	0	0	0	0	525	1020	
12	0	0	0	0	522	1020	
13	0	0	0	0	518	1020	
14	0	0	0	0	515	1020	
15	0	0	0	0	512	1020	
0	0	0	0	0	509	1020	
1	0	0	0	0	506	1020	
2	0	0	0	0	504	1020	
3	0	0	0	0	500	1020	
4	0	0	0	0	497	1020	
5	0	0	0	0	494	1020	
6	0	0	0	0	491	1020	
7	0	0	0	0	488	1020	
8	0	0	0	0	486	1020	
9	0	0	0	0	482	1020	
10	0	0	0	0	479	1020	
11	0	0	0	0	476	1020	
12	0	0	0	0	473	1020	
13	0	0	0	0	470	1020	
14	0	0	0	0	467	1020	
15	0	0	0	0	465	1020	
0	0	0	0	0	462	1020	
1	0	0	0	0	460	1020	
2	0	0	0	0	457	1020	
3	0	0	0	0	455	1020	
4	0	0	0	0	453	1020	
5	0	0	0	0	452	1020	
6	0	0	0	0	450	1020	
7	0	0	0	0	448	1020	
8	0	0	0	0	447	1020	
9	0	0	0	0	445	1020	
10	0	0	0	0	443	1020	
11	0	0	0	0	441	1020	
12	0	0	0	0	439	1020	
13	0	0	0	0	438	1020	
14	0	0	0	0	437	1020	
15	0	0	0	0	436	1020	
0	0	0	0	0	436	1020	
1	0	0	0	0	436	1020	
2	0	0	0	0	436	1020	
3	0	0	0	0	437	1020	
4	0	0	0	0	437	1020	
5	0	0	0	0	437	1020	
6	0	0	0	0	437	1020	
7	0	0	0	0	438	1020	
8	0	0	0	0	438	1020	
9	0	0	0	0	437	1020	
10	0	0	0	0	435	1020	
11	0	0	0	0	434	1020	
12	0	0	0	0	433	1020	
13	0	0	0	0	433	1020	
14	0	0	0	0	432	1020	
15	0	0	0	0	433	1020	
0	0	0	0	0	433	1020	
1	0	0	0	0	434	1020	
2	0	0	0	0	435	1020	
3	0	0	0	0	438	1020	
4	0	0	0	0	439	1020	
5	0	0	0	0	440	1020	
6	0	0	0	0	440	1020	
7	0	0	0	0	442	1020	
8	0	0	0	0	441	1020	
9	0	0	0	0	441	1020	
10	0	0	0	0	440	1020	
11	0	0	0	0	439	1020	
12	0	0	0	0	439	1020	
13	0	0	0	0	439	1020	
14	0	0	0	0	439	1020	
15	0	0	0	0	440	1020	
0	0	0	0	0	440	1020	
1	0	0	0	0	440	1020	
2	0	0	0	0	440	1020	
3	0	0	0	0	441	1020	
4	0	0	0	0	442	1020	
5	0	0	0	0	443	1020	
6	0	0	0	0	444	1020	
7	0	0	0	0	445	1020	
8	0	0	0	0	447	1020	
9	0	0	0	0	448	1020	
10	0	0	0	0	448	1020	
11	0	0	0	0	449	1020	
12	0	0	0	0	449	1020	
13	0	0	0	0	449	1020	
14	0	0	0	0	450	1020	
15	0	0	0	0	450	1020	
0	0	0	0	0	450	1020	
1	0	0	0	0	451	1020	
2	0	0	0	0	451	1020	
3	0	0	0	0	452	1020	
4	0	0	0	0	452	1020	
5	0	0	0	0	453	1020	
6	0	0	0	0	454	1020	
7	0	0	0	0	455	1020	
8	0	0	0	0	457	1020	
9	0	0	0	0	457	1020	
10	0	0	0	0	458	1020	
11	0	0	0	0	458	1020	
12	0	0	0	0	459	1020	
13	0	0	0	0	460	1020	
14	0	0	0	0	460	1020	
15	0	0	0	0	461	1020	
0	0	0	0	0	462	1020	
1	0	0	0	0	463	1020	
2	0	0	0	0	464	1020	
3	0	0	0	0	465	1020	
4	0	0	0	0	467	1020	
5	0	0	0	0	468	1020	
6	0	0	0	0	470	1020	
7	0	0	0	0	472	1020	
8	0	0	0	0	472	1020	
9	0	0	0	0	473	1020	
10	0	0	0	0	473	1020	
11	0	0	0	0	474	1020	
12	0	0	0	0	475	1020	
13	0	0	0	0	476	1020	
14	0	0	0	0	477	1020	
15	0	0	0	0	477	1020	
0	0	0	0	0	478	1020	
1	0	0	0	0	479	1020	
2	0	0	0	0	480	1020	
3	0	0	0	0	480	1020	
4	0	0	0	0	481	1020	
5	0	0	0	0	482	1020	
6	0	0	0	0	483	1020	
7	0	0	0	0	484	1020	
8	0	0	0	0	485	1020	
9	0	0	0	0	486	1020	
10	0	0	0	0	487	1020	
11	0	0	0	0	487	1020	
12	0	0	0	0	487	1020	
13	0	0	0	0	488	1020	
14	0	0	0	0	488	1020	
15	0	0	0	0	488	1020	
0	0	0	0	0	490	1020	
1	0	0	0	0	491	1020	
2	0	0	0	0	492	1020	
3	0	0	0	0	494	1020	
4	0	0	0	0	494	1020	
5	0	0	0	0	495	1020	
6	0	0	0	0	496	1020	
7	0	0	0	0	497	1020	
8	0	0	0	0	497	1020	
9	0	0	0	0	497	1020	
10	0	0	0	0	497	1020	
11	0	0	0	0	497	1020	
12	0	0	0	0	497	1020	
13	0	0	0	0	497	1020	
14	0	0	0	0	497	1020	
15	0	0	0	0	498	1020	
0	0	0	0	0	498	1020	
1	0	0	0	0	499	1020	
2	0	0	0	0	499	1020	
3	0	0	0	0	499	1020	
4	0	0	0	0	499	1020	
5	0	0	0	0	500	1020	
6	0	0	0	0	500	1020	
7	0	0	0	0	501	1020	
8	0	0	0	0	503	1020	
9	0	0	0	0	504	1020	
10	0	0	0	0	504	1020	
11	0	0	0	0	504	1020	
12	0	0	0	0	504	1020	
13	0	0	0	0	504	1020	
14	0	0	0	0	505	1020	
15	0	0	0	0	505	1020	
0	0	0	0	0	505	1020	
1	0	0	0	0	506	1020	
2	0	0	0	0	507	1020	
3	0	0	0	0	508	1020	
4	0	0	0	0	509	1020	
5	0	0	0	0	508	1020	
6	0	0	0	0	509	1020	
7	0	0	0	0	510	1020	
8	0	0	0	0	510	1020	
9	0	0	0	0	510	1020	
10	0	0	0	0	510	1020	
11	0	0	0	0	509	1020	
12	0	0	0	0	509	1020	
13	0	0	0	0	510	1020	
14	0	0	0	0	510	1020	
15	0	0	0	0	509	1020	
0	0	0	0	0	509	1020	
1	0	0	0	0	509	1020	
2	0	0	0	0	508	1020	
3	0	0	0	0	509	1020	
4	0	0	0	0	509	1020	
5	0	0	0	0	509	1020	
6	0	0	0	0	510	1020	
7	0	0	0	0	510	1020	
8	0	0	0	0	512	1020	
9	0	0	0	0	512	1020	
10	0	0	0	0	512	1020	
11	0	0	0	0	511	1020	
12	0	0	0	0	510	1020	
13	0	0	0	0	509	1020	
14	0	0	0	0	510	1020	
15	0	0	0	0	509	1020	
0	0	0	0	0	509	1020	
1	0	0	0	0	507	1020	
2	0	0	0	0	507	1020	
3	0	0	0	0	507	1020	
4	0	0	0	0	507	1020	
5	0	0	0	0	508	1020	
6	0	0	0	0	509	1020	
7	0	0	0	0	510	1020	
8	0	0	0	0	511	1020	
9	0	0	0	0	511	1020	
10	0	0	0	0	512	1020	
11	0	0	0	0	511	1020	
12	0	0	0	0	511	1020	
13	0	0	0	0	511	1020	
14	0	0	0	0	510	1020	
15	0	0	0	0	509	1020	
0	0	0	0	0	509	1020	
1	0	0	0	0	510	1020	
2	0	0	0	0	510	1020	
3	0	0	0	0	509	1020	
4	0	0	0	0	509	1020	
5	0	0	0	0	509	1020	
6	0	0	0	0	508	1020	
7	0	0	0	0	509	1020	
8	0	0	0	0	509	1020	
9	0	0	0	0	510	1020	
10	0	0	0	0	510	1020	
11	0	0	0	0	510	1020	
12	0	0	0	0	509	1020	
13	0	0	0	0	509	1020	
14	0	0	0	0	509	1020	
15	0	0	0	0	510	1020	
0	0	0	0	0	509	1020	
1	0	0	0	0	508	1020	
2	0	0	0	0	507	1020	
3	0	0	0	0	508	1020	
4	0	0	0	0	507	1020	
5	0	0	0	0	507	1020	
6	0	0	0	0	507	1020	
7	0	0	0	0	508	1020	
8	0	0	0	0	508	1020	
9	0	0	0	0	509	1020	
10	0	0	0	0	509	1020	
11	0	0	0	0	508	1020	
12	0	0	0	0	508	1020	
13	0	0	0	0	509	1020	
14	0	0	0	0	511	1020	
15	0	0	0	0	511	1020	
0	0	0	0	0	511	1020	
1	0	0	0	0	511	1020	
2	0	0	0	0	511	1020	
3	0	0	0	0	512	1020	
4	0	0	0	0	512	1020	
5	0	0	0	0	512	1020	
6	0	0	0	0	512	1020	
7	0	0	0	0	514	1020	
8	0	0	0	0	515	1020	
9	0	0	0	0	517	1020	
10	0	0	0	0	520	1020	
11	0	0	0	0	522	1020	
12	0	0	0	0	526	1020	
13	0	0	0	0	528	1020	
14	0	0	0	0	530	1020	
15	0	0	0	0	531	1020	
0	0	0	0	0	532	1020	
1	0	0	0	0	532	1020	
2	0	0	0	0	532	1020	
3	0	0	0	0	532	1020	
4	0	0	0	0	531	1020	
5	0	0	0	0	531	1020	
6	0	0	0	0	529	1020	
7	0	0	0	0	529	1020	
8	0	0	0	0	529	1020	
9	0	0	0	0	529	1020	
10	0	0	0	0	530	1020	
11	0	0	0	0	531	1020	
12	0	0	0	0	532	1020	
13	0	0	0	0	534	1020	
14	0	0	0	0	536	1020	
15	0	0	0	0	539	1020	
0	0	0	0	0	541	1020	
1	0	0	0	0	543	1020	
2	0	0	0	0	546	1020	
3	0	0	0	0	549	1020	
4	0	0	0	0	551	1020	
5	0	0	0	0	553	1020	
6	0	0	0	0	554	1020	
7	0	0	0	0	555	1020	
8	0	0	0	0	553	1020	
9	0	0	0	0	551	1020	
10	0	0	0	0	550	1020	
11	0	0	0	0	548	1020	
12	0	0	0	0	546	1020	
13	0	0	0	0	545	1020	
14	0	0	0	0	544	1020	
15	0	0	0	0	543	1020	
0	0	0	0	0	541	1020	
1	0	0	0	0	540	1020	
2	0	0	0	0	540	1020	
3	0	0	0	0	540	1020	
4	0	0	0	0	540	1020	
5	0	0	0	0	541	1020	
6	0	0	0	0	541	1020	
7	0	0	0	0	541	1020	
8	0	0	0	0	540	1020	
9	0	0	0	0	538	1020	
10	0	0	0	0	537	1020	
11	0	0	0	0	535	1020	
12	0	0	0	0	534	1020	
13	0	0	0	0	532	1020	
14	0	0	0	0	531	1020	
15	0	0	0	0	531	1020	
0	0	0	0	0	531	1020	
1	0	0	0	0	531	1020	
2	0	0	0	0	531	1020	
3	0	0	0	0	531	1020	
4	0	0	0	0	532	1020	
5	0	0	0	0	531	1020	
6	0	0	0	0	530	1020	
7	0	0	0	0	528	1020	
8	0	0	0	0	525	1020	
9	0	0	0	0	522	1020	
10	0	0	0	0	519	1020	
11	0	0	0	0	517	1020	
12	0	0	0	0	515	1020	
13	0	0	0	0	513	1020	
14	0	0	0	0	510	1020	
15	0	0	0	0	507	1020	
0	0	0	0	0	505	1020	
1	0	0	0	0	501	1020	
2	0	0	0	0	498	1020	
3	0	0	0	0	495	1020	
4	0	0	0	0	493	1020	
5	0	0	0	0	491	1020	
6	0	0	0	0	487	1020	
7	0	0	0	0	485	1020	
8	0	0	0	0	484	1020	
9	0	0	0	0	483	1020	
10	0	0	0	0	482	1020	
11	0	0	0	0	481	1020	
12	0	0	0	0	479	1020	
13	0	0	0	0	478	1020	
14	0	0	0	0	479	1020	
15	0	0	0	0	479	1020	
0	0	0	0	0	479	1020	
1	0	0	0	0	480	1020	
2	0	0	0	0	480	1020	
3	0	0	0	0	480	1020	
4	0	0	0	0	480	1020	
5	0	0	0	0	480	1020	
6	0	0	0	0	480	1020	
7	0	0	0	0	480	1020	
8	0	0	0	0	480	1020	
9	0	0	0	0	480	1020	
10	0	0	0	0	481	1020	
11	0	0	0	0	481	1020	
12	0	0	0	0	482	1020	
13	0	0	0	0	482	1020	
14	0	0	0	0	482	1020	
15	0	0	0	0	483	1020	
0	0	0	0	0	484	1020	
1	0	0	0	0	484	1020	
2	0	0	0	0	484	1020	
3	0	0	0	0	484	1020	
4	0	0	0	0	484	1020	
5	0	0	0	0	483	1020	
6	0	0	0	0	483	1020	
7	0	0	0	0	483	1020	
8	0	0	0	0	484	1020	
9	0	0	0	0	484	1020	
10	0	0	0	0	484	1020	
11	0	0	0	0	484	1020	
12	0	0	0	0	484	1020	
13	0	0	0	0	485	1020	
14	0	0	0	0	486	1020	
15	0	0	0	0	487	1020	
0	0	0	0	0	488	1020	
1	0	0	0	0	488	1020	
2	0	0	0	0	488	1020	
3	0	0	0	0	489	1020	
4	0	0	0	0	488	1020	
5	0	0	0	0	487	1020	
6	0	0	0	0	487	1020	
7	0	0	0	0	484	1020	
8	0	0	0	0	481	1020	
9	0	0	0	0	477	1020	
10	0	0	0	0	470	1020	
11	0	0	0	0	462	1020	
12	0	0	0	0	454	1020	
13	0	0	0	0	445	1020	
14	0	0	0	0	438	1020	
15	0	0	0	0	432	1020	
0	0	0	0	0	428	1020	
1	0	0	0	0	427	1020	
2	0	0	0	0	427	1020	
3	0	0	0	0	430	1020	
4	0	0	0	0	435	1020	
5	0	0	0	0	440	1020	
6	0	0	0	0	446	1020	
7	0	0	0	0	453	1020	
8	0	0	0	0	462	1020	
9	0	0	0	0	471	1020	
10	0	0	0	0	480	1020	
11	0	0	0	0	494	1020	
12	0	0	0	0	508	1020	
13	0	0	0	0	526	1020	
14	0	0	0	0	547	1020	
15	0	0	0	0	574	1020	
0	0	0	0	0	604	1020	
1	0	0	0	0	639	1020	
2	0	0	0	0	679	1020	
3	0	0	0	0	722	1020	
4	0	0	0	0	770	1020	
5	0	0	0	0	820	1020	
6	0	0	0	0	869	1020	
7	0	0	0	0	916	1020	
8	0	0	0	0	959	1020	
9	0	0	0	0	993	1020	
10	0	0	0	0	1019	1020	
11	0	0	0	0	1022	1020	
12	0	0	0	0	1022	1020	
13	0	0	0	0	1021	1020	
14	0	0	0	0	1010	1020	
15	0	0	0	0	991	1020	
0	0	0	0	0	966	1020	
1	0	0	0	0	935	1020	
2	0	0	0	0	903	1020	
3	0	0	0	0	865	1020	
4	0	0	0	0	820	1020	
5	0	0	0	0	772	1020	
6	0	0	0	0	725	1020	
7	0	0	0	0	678	1020	
8	0	0	0	0	632	1020	
9	0	0	0	0	591	1020	
10	0	0	0	0	556	1020	
11	0	0	0	0	522	1020	
12	0	0	0	0	492	1020	
13	0	0	0	0	466	1020	
14	0	0	0	0	444	1020	
15	0	0	0	0	429	1020	
0	0	0	0	0	417	1020	
1	0	0	0	0	409	1020	
2	0	0	0	0	402	1020	
3	0	0	0	0	398	1020	
4	0	0	0	0	398	1020	
5	0	0	0	0	401	1020	
6	0	0	0	0	407	1020	
7	0	0	0	0	411	1020	
8	0	0	0	0	414	1020	
9	0	0	0	0	417	1020	
10	0	0	0	0	419	1020	
11	0	0	0	0	419	1020	
12	0	0	0	0	419	1020	
13	0	0	0	0	420	1020	
14	0	0	0	0	421	1020	
15	0	0	0	0	422	1020	
0	0	0	0	0	423	1020	
1	0	0	0	0	426	1020	
2	0	0	0	0	428	1020	
3	0	0	0	0	432	1020	
4	0	0	0	0	435	1020	
5	0	0	0	0	437	1020	
6	0	0	0	0	437	1020	
7	0	0	0	0	437	1020	
8	0	0	0	0	437	1020	
9	0	0	0	0	438	1020	
10	0	0	0	0	439	1020	
11	0	0	0	0	438	1020	
12	0	0	0	0	438	1020	
13	0	0	0	0	438	1020	
14	0	0	0	0	439	1020	
15	0	0	0	0	440	1020	
0	0	0	0	0	440	1020	
1	0	0	0	0	442	1020	
2	0	0	0	0	444	1020	
3	0	0	0	0	445	1020	
4	0	0	0	0	447	1020	
5	0	0	0	0	448	1020	
6	0	0	0	0	449	1020	
7	0	0	0	0	449	1020	
8	0	0	0	0	449	1020	
9	0	0	0	0	450	1020	
10	0	0	0	0	451	1020	
11	0	0	0	0	453	1020	
12	0	0	0	0	455	1020	
13	0	0	0	0	456	1020	
14	0	0	0	0	456	1020	
15	0	0	0	0	457	1020	
0	0	0	0	0	459	1020	
1	0	0	0	0	460	1020	
2	0	0	0	0	461	1020	
3	0	0	0	0	462	1020	
4	0	0	0	0	462	1020	
5	0	0	0	0	462	1020	
6	0	0	0	0	462	1020	
7	0	0	0	0	464	1020	
8	0	0	0	0	465	1020	
9	0	0	0	0	465	1020	
10	0	0	0	0	467	1020	
11	0	0	0	0	469	1020	
12	0	0	0	0	471	1020	
13	0	0	0	0	472	1020	
14	0	0	0	0	474	1020	
15	0	0	0	0	476	1020	
0	0	0	0	0	477	1020	
1	0	0	0	0	479	1020	
2	0	0	0	0	480	1020	
3	0	0	0	0	481	1020	
4	0	0	0	0	483	1020	
5	0	0	0	0	484	1020	
6	0	0	0	0	484	1020	
7	0	0	0	0	487	1020	
8	0	0	0	0	488	1020	
9	0	0	0	0	489	1020	
10	0	0	0	0	489	1020	
11	0	0	0	0	491	1020	
12	0	0	0	0	492	1020	
13	0	0	0	0	493	1020	
14	0	0	0	0	494	1020	
15	0	0	0	0	493	1020	
0	0	0	0	0	494	1020	
1	0	0	0	0	496	1020	
2	0	0	0	0	497	1020	
3	0	0	0	0	499	1020	
4	0	0	0	0	500	1020	
5	0	0	0	0	501	1020	
6	0	0	0	0	502	1020	
7	0	0	0	0	504	1020	
8	0	0	0	0	506	1020	
9	0	0	0	0	507	1020	
10	0	0	0	0	509	1020	
11	0	0	0	0	510	1020	
12	0	0	0	0	509	1020	
13	0	0	0	0	510	1020	
14	0	0	0	0	511	1020	
15	0	0	0	0	512	1020	
0	0	0	0	0	511	1020	
1	0	0	0	0	512	1020	
2	0	0	0	0	512	1020	
3	0	0	0	0	513	1020	
4	0	0	0	0	515	1020	
5	0	0	0	0	517	1020	
6	0	0	0	0	519	1020	
7	0	0	0	0	522	1020	
8	0	0	0	0	523	1020	
9	0	0	0	0	524	1020	
10	0	0	0	0	526	1020	
11	0	0	0	0	527	1020	
12	0	0	0	0	529	1020	
13	0	0	0	0	530	1020	
14	0	0	0	0	531	1020	
15	0	0	0	0	533	1020	
0	0	0	0	0	535	1020	
1	0	0	0	0	534	1020	
2	0	0	0	0	533	1020	
3	0	0	0	0	534	1020	
4	0	0	0	0	535	1020	
5	0	0	0	0	536	1020	
6	0	0	0	0	537	1020	
7	0	0	0	0	538	1020	
8	0	0	0	0	538	1020	
9	0	0	0	0	540	1020	
10	0	0	0	0	541	1020	
11	0	0	0	0	543	1020	
12	0	0	0	0	544	1020	
13	0	0	0	0	545	1020	
14	0	0	0	0	546	1020	
15	0	0	0	0	546	1020	
0	0	0	0	0	547	1020	
1	0	0	0	0	549	1020	
2	0	0	0	0	551	1020	
3	0	0	0	0	553	1020	
4	0	0	0	0	554	1020	
5	0	0	0	0	556	1020	
6	0	0	0	0	558	1020	
7	0	0	0	0	559	1020	
8	0	0	0	0	561	1020	
9	0	0	0	0	562	1020	
10	0	0	0	0	563	1020	
11	0	0	0	0	565	1020	
12	0	0	0	0	568	1020	
13	0	0	0	0	569	1020	
14	0	0	0	0	570	1020	
15	0	0	0	0	571	1020	
0	0	0	0	0	571	1020	
1	0	0	0	0	572	1020	
2	0	0	0	0	573	1020	
3	0	0	0	0	573	1020	
4	0	0	0	0	574	1020	
5	0	0	0	0	575	1020	
6	0	0	0	0	576	1020	
7	0	0	0	0	578	1020	
8	0	0	0	0	579	1020	
9	0	0	0	0	581	1020	
10	0	0	0	0	581	1020	
11	0	0	0	0	583	1020	
12	0	0	0	0	584	1020	
13	0	0	0	0	584	1020	
14	0	0	0	0	584	1020	
15	0	0	0	0	584	1020	
0	0	0	0	0	583	1020	
1	0	0	0	0	583	1020	
2	0	0	0	0	581	1020	
3	0	0	0	0	581	1020	
4	0	0	0	0	580	1020	
5	0	0	0	0	580	1020	
6	0	0	0	0	579	1020	
7	0	0	0	0	579	1020	
8	0	0	0	0	577	1020	
9	0	0	0	0	576	1020	
10	0	0	0	0	575	1020	
11	0	0	0	0	575	1020	
12	0	0	0	0	575	1020	
13	0	0	0	0	575	1020	
14	0	0	0	0	574	1020	
15	0	0	0	0	572	1020	
0	0	0	0	0	571	1020	
1	0	0	0	0	570	1020	
2	0	0	0	0	569	1020	
3	0	0	0	0	568	1020	
4	0	0	0	0	566	1020	
5	0	0	0	0	566	1020	
6	0	0	0	0	564	1020	
7	0	0	0	0	562	1020	
8	0	0	0	0	560	1020	
9	0	0	0	0	558	1020	
10	0	0	0	0	555	1020	
11	0	0	0	0	551	1020	
12	0	0	0	0	548	1020	
13	0	0	0	0	544	1020	
14	0	0	0	0	541	1020	
15	0	0	0	0	538	1020	
0	0	0	0	0	535	1020	
1	0	0	0	0	532	1020	
2	0	0	0	0	529	1020	
3	0	0	0	0	525	1020	
4	0	0	0	0	520	1020	
5	0	0	0	0	517	1020	
6	0	0	0	0	513	1020	
7	0	0	0	0	510	1020	
8	0	0	0	0	507	1020	
9	0	0	0	0	504	1020	
10	0	0	0	0	500	1020	
11	0	0	0	0	497	1020	
12	0	0	0	0	494	1020	
13	0	0	0	0	490	1020	
14	0	0	0	0	487	1020	
15	0	0	0	0	484	1020	
0	0	0	0	0	481	1020	
1	0	0	0	0	477	1020	
2	0	0	0	0	474	1020	
3	0	0	0	0	472	1020	
4	0	0	0	0	469	1020	
5	0	0	0	0	466	1020	
6	0	0	0	0	463	1020	
7	0	0	0	0	461	1020	
8	0	0	0	0	459	1020	
9	0	0	0	0	457	1020	
10	0	0	0	0	455	1020	
11	0	0	0	0	454	1020	
12	0	0	0	0	452	1020	
13	0	0	0	0	451	1020	
14	0	0	0	0	450	1020	
15	0	0	0	0	448	1020	
0	0	0	0	0	447	1020	
1	0	0	0	0	445	1020	
2	0	0	0	0	443	1020	
3	0	0	0	0	440	1020	
4	0	0	0	0	438	1020	
5	0	0	0	0	437	1020	
6	0	0	0	0	436	1020	
7	0	0	0	0	436	1020	
8	0	0	0	0	436	1020	
9	0	0	0	0	435	1020	
10	0	0	0	0	433	1020	
11	0	0	0	0	433	1020	
12	0	0	0	0	433	1020	
13	0	0	0	0	432	1020	
14	0	0	0	0	432	1020	
15	0	0	0	0	433	1020	
0	0	0	0	0	432	1020	
1	0	0	0	0	432	1020	
2	0	0	0	0	432	1020	
3	0	0	0	0	432	1020	
4	0	0	0	0	430	1020	
5	0	0	0	0	429	1020	
6	0	0	0	0	429	1020	
7	0	0	0	0	429	1020	
8	0	0	0	0	430	1020	
9	0	0	0	0	430	1020	
10	0	0	0	0	431	1020	
11	0	0	0	0	431	1020	
12	0	0	0	0	433	1020	
13	0	0	0	0	433	1020	
14	0	0	0	0	433	1020	
15	0	0	0	0	435	1020	
0	0	0	0	0	435	1020	
1	0	0	0	0	437	1020	
2	0	0	0	0	436	1020	
3	0	0	0	0	436	1020	
4	0	0	0	0	436	1020	
5	0	0	0	0	437	1020	
6	0	0	0	0	437	1020	
7	0	0	0	0	436	1020	
8	0	0	0	0	437	1020	
9	0	0	0	0	438	1020	
10	0	0	0	0	439	1020	
11	0	0	0	0	440	1020	
12	0	0	0	0	442	1020	
13	0	0	0	0	443	1020	
14	0	0	0	0	445	1020	
15	0	0	0	0	446	1020	
0	0	0	0	0	447	1020	
1	0	0	0	0	448	1020	
2	0	0	0	0	448	1020	
3	0	0	0	0	448	1020	
4	0	0	0	0	449	1020	
5	0	0	0	0	449	1020	
6	0	0	0	0	449	1020	
7	0	0	0	0	448	1020	
8	0	0	0	0	448	1020	
9	0	0	0	0	449	1020	
10	0	0	0	0	449	1020	
11	0	0	0	0	449	1020	
12	0	0	0	0	449	1020	
13	0	0	0	0	451	1020	
14	0	0	0	0	452	1020	
15	0	0	0	0	454	1020	
0	0	0	0	0	455	1020	
1	0	0	0	0	455	1020	
2	0	0	0	0	455	1020	
3	0	0	0	0	456	1020	
4	0	0	0	0	456	1020	
5	0	0	0	0	457	1020	
6	0	0	0	0	458	1020	
7	0	0	0	0	459	1020	
8	0	0	0	0	459	1020	
9	0	0	0	0	460	1020	
10	0	0	0	0	461	1020	
11	0	0	0	0	462	1020	
12	0	0	0	0	463	1020	
13	0	0	0	0	464	1020	
14	0	0	0	0	465	1020	
15	0	0	0	0	465	1020	
0	0	0	0	0	467	1020	
1	0	0	0	0	468	1020	
2	0	0	0	0	469	1020	
3	0	0	0	0	470	1020	
4	0	0	0	0	470	1020	
5	0	0	0	0	471	1020	
6	0	0	0	0	472	1020	
7	0	0	0	0	473	1020	
8	0	0	0	0	473	1020	
9	0	0	0	0	473	1020	
10	0	0	0	0	475	1020	
11	0	0	0	0	476	1020	
12	0	0	0	0	478	1020	
13	0	0	0	0	479	1020	
14	0	0	0	0	480	1020	
15	0	0	0	0	481	1020	
0	0	0	0	0	483	1020	
1	0	0	0	0	484	1020	
2	0	0	0	0	484	1020	
3	0	0	0	0	486	1020	
4	0	0	0	0	486	1020	
5	0	0	0	0	486	1020	
6	0	0	0	0	486	1020	
7	0	0	0	0	486	1020	
8	0	0	0	0	487	1020	
9	0	0	0	0	487	1020	
10	0	0	0	0	488	1020	
11	0	0	0	0	489	1020	
12	0	0	0	0	490	1020	
13	0	0	0	0	492	1020	
14	0	0	0	0	492	1020	
15	0	0	0	0	492	1020	
0	0	0	0	0	493	1020	
1	0	0	0	0	494	1020	
2	0	0	0	0	495	1020	
3	0	0	0	0	496	1020	
4	0	0	0	0	496	1020	
5	0	0	0	0	496	1020	
6	0	0	0	0	496	1020	
7	0	0	0	0	496	1020	
8	0	0	0	0	497	1020	
9	0	0	0	0	497	1020	
10	0	0	0	0	497	1020	
11	0	0	0	0	498	1020	
12	0	0	0	0	499	1020	
13	0	0	0	0	500	1020	
14	0	0	0	0	501	1020	
15	0	0	0	0	503	1020	
0	0	0	0	0	503	1020	
1	0	0	0	0	504	1020	
2	0	0	0	0	504	1020	
3	0	0	0	0	505	1020	
4	0	0	0	0	505	1020	
5	0	0	0	0	506	1020	
6	0	0	0	0	507	1020	
7	0	0	0	0	507	1020	
8	0	0	0	0	506	1020	
9	0	0	0	0	505	1020	
10	0	0	0	0	504	1020	
11	0	0	0	0	504	1020	
12	0	0	0	0	503	1020	
13	0	0	0	0	504	1020	
14	0	0	0	0	504	1020	
15	0	0	0	0	504	1020	
0	0	0	0	0	504	1020	
1	0	0	0	0	503	1020	
2	0	0	0	0	503	1020	
3	0	0	0	0	504	1020	
4	0	0	0	0	504	1020	
5	0	0	0	0	504	1020	
6	0	0	0	0	504	1020	
7	0	0	0	0	505	1020	
8	0	0	0	0	506	1020	
9	0	0	0	0	506	1020	
10	0	0	0	0	505	1020	
11	0	0	0	0	505	1020	
12	0	0	0	0	504	1020	
13	0	0	0	0	504	1020	
14	0	0	0	0	503	1020	
15	0	0	0	0	504	1020	
0	0	0	0	0	505	1020	
1	0	0	0	0	506	1020	
2	0	0	0	0	506	1020	
3	0	0	0	0	506	1020	
4	0	0	0	0	506	1020	
5	0	0	0	0	506	1020	
6	0	0	0	0	506	1020	
7	0	0	0	0	506	1020	
8	0	0	0	0	505	1020	
9	0	0	0	0	505	1020	
10	0	0	0	0	504	1020	
11	0	0	0	0	504	1020	
12	0	0	0	0	505	1020	
13	0	0	0	0	504	1020	
14	0	0	0	0	504	1020	
15	0	0	0	0	504	1020	
0	0	0	0	0	504	1020	
1	0	0	0	0	504	1020	
2	0	0	0	0	506	1020	
3	0	0	0	0	508	1020	
4	0	0	0	0	507	1020	
5	0	0	0	0	508	1020	
6	0	0	0	0	508	1020	
7	0	0	0	0	508	1020	
8	0	0	0	0	507	1020	
9	0	0	0	0	508	1020	
10	0	0	0	0	507	1020	
11	0	0	0	0	507	1020	
12	0	0	0	0	505	1020	
13	0	0	0	0	505	1020	
14	0	0	0	0	505	1020	
15	0	0	0	0	506	1020	
0	0	0	0	0	506	1020	
1	0	0	0	0	506	1020	
2	0	0	0	0	506	1020	
3	0	0	0	0	508	1020	
4	0	0	0	0	508	1020	
5	0	0	0	0	508	1020	
6	0	0	0	0	508	1020	
7	0	0	0	0	507	1020	
8	0	0	0	0	507	1020	
9	0	0	0	0	508	1020	
10	0	0	0	0	507	1020	
11	0	0	0	0	507	1020	
12	0	0	0	0	506	1020	
13	0	0	0	0	505	1020	
14	0	0	0	0	505	1020	
15	0	0	0	0	507	1020	
0	0	0	0	0	507	1020	
1	0	0	0	0	507	1020	
2	0	0	0	0	507	1020	
3	0	0	0	0	508	1020	
4	0	0	0	0	507	1020	
5	0	0	0	0	508	1020	
6	0	0	0	0	508	1020	
7	0	0	0	0	508	1020	
8	0	0	0	0	508	1020	
9	0	0	0	0	508	1020	
10	0	0	0	0	508	1020	
11	0	0	0	0	508	1020	
12	0	0	0	0	508	1020	
13	0	0	0	0	508	1020	
14	0	0	0	0	507	1020	
15	0	0	0	0	508	1020	
0	0	0	0	0	508	1020	
1	0	0	0	0	508	1020	
2	0	0	0	0	509	1020	
3	0	0	0	0	508	1020	
4	0	0	0	0	508	1020	
5	0	0	0	0	507	1020	
6	0	0	0	0	508	1020	
7	0	0	0	0	508	1020	
8	0	0	0	0	508	1020	
9	0	0	0	0	509	1020	
10	0	0	0	0	508	1020	
11	0	0	0	0	509	1020	
12	0	0	0	0	509	1020	
13	0	0	0	0	507	1020	
14	0	0	0	0	505	1020	
15	0	0	0	0	504	1020	
0	0	0	0	0	504	1020	
1	0	0	0	0	504	1020	
2	0	0	0	0	504	1020	
3	0	0	0	0	504	1020	
4	0	0	0	0	504	1020	
5	0	0	0	0	505	1020	
6	0	0	0	0	505	1020	
7	0	0	0	0	507	1020	
8	0	0	0	0	508	1020	
9	0	0	0	0	508	1020	
10	0	0	0	0	508	1020	
11	0	0	0	0	510	1020	
12	0	0	0	0	511	1020	
13	0	0	0	0	512	1020	
14	0	0	0	0	512	1020	
15	0	0	0	0	513	1020	
0	0	0	0	0	514	1020	
1	0	0	0	0	515	1020	
2	0	0	0	0	515	1020	
3	0	0	0	0	517	1020	
4	0	0	0	0	518	1020	
5	0	0	0	0	520	1020	
6	0	0	0	0	521	1020	
7	0	0	0	0	524	1020	
8	0	0	0	0	526	1020	
9	0	0	0	0	527	1020	
10	0	0	0	0	529	1020	
11	0	0	0	0	531	1020	
12	0	0	0	0	534	1020	
13	0	0	0	0	534	1020	
14	0	0	0	0	535	1020	
15	0	0	0	0	536	1020	
0	0	0	0	0	536	1020	
1	0	0	0	0	535	1020	
2	0	0	0	0	533	1020	
3	0	0	0	0	531	1020	
4	0	0	0	0	531	1020	
5	0	0	0	0	531	1020	
6	0	0	0	0	531	1020	
7	0	0	0	0	531	1020	
8	0	0	0	0	532	1020	
9	0	0	0	0	534	1020	
10	0	0	0	0	535	1020	
11	0	0	0	0	536	1020	
12	0	0	0	0	537	1020	
13	0	0	0	0	539	1020	
14	0	0	0	0	542	1020	
15	0	0	0	0	544	1020	
0	0	0	0	0	547	1020	
1	0	0	0	0	551	1020	
2	0	0	0	0	553	1020	
3	0	0	0	0	555	1020	
4	0	0	0	0	557	1020	
5	0	0	0	0	556	1020	
6	0	0	0	0	556	1020	
7	0	0	0	0	554	1020	
8	0	0	0	0	551	1020	
9	0	0	0	0	549	1020	
10	0	0	0	0	548	1020	
11	0	0	0	0	547	1020	
12	0	0	0	0	547	1020	
13	0	0	0	0	545	1020	
14	0	0	0	0	544	1020	
15	0	0	0	0	542	1020	
0	0	0	0	0	540	1020	
1	0	0	0	0	540	1020	
2	0	0	0	0	540	1020	
3	0	0	0	0	539	1020	
4	0	0	0	0	539	1020	
5	0	0	0	0	540	1020	
6	0	0	0	0	540	1020	
7	0	0	0	0	539	1020	
8	0	0	0	0	537	1020	
9	0	0	0	0	536	1020	
10	0	0	0	0	536	1020	
11	0	0	0	0	536	1020	
12	0	0	0	0	535	1020	
13	0	0	0	0	534	1020	
14	0	0	0	0	533	1020	
15	0	0	0	0	532	1020	
0	0	0	0	0	532	1020	
1	0	0	0	0	531	1020	
2	0	0	0	0	530	1020	
3	0	0	0	0	529	1020	
4	0	0	0	0	527	1020	
5	0	0	0	0	526	1020	
6	0	0	0	0	524	1020	
7	0	0	0	0	521	1020	
8	0	0	0	0	519	1020	
9	0	0	0	0	517	1020	
10	0	0	0	0	513	1020	
11	0	0	0	0	511	1020	
12	0	0	0	0	507	1020	
13	0	0	0	0	504	1020	
14	0	0	0	0	502	1020	
15	0	0	0	0	499	1020	
0	0	0	0	0	495	1020	
1	0	0	0	0	493	1020	
2	0	0	0	0	490	1020	
3	0	0	0	0	488	1020	
4	0	0	0	0	488	1020	
5	0	0	0	0	487	1020	
6	0	0	0	0	486	1020	
7	0	0	0	0	485	1020	
8	0	0	0	0	485	1020	
9	0	0	0	0	484	1020	
10	0	0	0	0	485	1020	
11	0	0	0	0	484	1020	
12	0	0	0	0	483	1020	
13	0	0	0	0	482	1020	
14	0	0	0	0	482	1020	
15	0	0	0	0	481	1020	
0	0	0	0	0	481	1020	
1	0	0	0	0	480	1020	
2	0	0	0	0	480	1020	
3	0	0	0	0	480	1020	
4	0	0	0	0	481	1020	
5	0	0	0	0	481	1020	
6	0	0	0	0	481	1020	
7	0	0	0	0	481	1020	
8	0	0	0	0	480	1020	
9	0	0	0	0	481	1020	
10	0	0	0	0	481	1020	
11	0	0	0	0	481	1020	
12	0	0	0	0	481	1020	
13	0	0	0	0	483	1020	
14	0	0	0	0	484	1020	
15	0	0	0	0	484	1020	
0	0	0	0	0	484	1020	
1	0	0	0	0	484	1020	
2	0	0	0	0	484	1020	
3	0	0	0	0	485	1020	
4	0	0	0	0	486	1020	
5	0	0	0	0	487	1020	
6	0	0	0	0	487	1020	
7	0	0	0	0	488	1020	
8	0	0	0	0	489	1020	
9	0	0	0	0	489	1020	
10	0	0	0	0	489	1020	
11	0	0	0	0	489	1020	
12	0	0	0	0	489	1020	
13	0	0	0	0	489	1020	
14	0	0	0	0	489	1020	
15	0	0	0	0	488	1020	
0	0	0	0	0	488	1020	
1	0	0	0	0	489	1020	
2	0	0	0	0	488	1020	
3	0	0	0	0	487	1020	
4	0	0	0	0	486	1020	
5	0	0	0	0	483	1020	
6	0	0	0	0	478	1020	
7	0	0	0	0	472	1020	
8	0	0	0	0	465	1020	
9	0	0	0	0	456	1020	
10	0	0	0	0	448	1020	
11	0	0	0	0	439	1020	
12	0	0	0	0	434	1020	
13	0	0	0	0	430	1020	
14	0	0	0	0	428	1020	
15	0	0	0	0	427	1020	
0	0	0	0	0	429	1020	
1	0	0	0	0	434	1020	
2	0	0	0	0	440	1020	
3	0	0	0	0	446	1020	
4	0	0	0	0	453	1020	
5	0	0	0	0	459	1020	
6	0	0	0	0	468	1020	
7	0	0	0	0	476	1020	
8	0	0	0	0	488	1020	
9	0	0	0	0	502	1020	
10	0	0	0	0	519	1020	
11	0	0	0	0	539	1020	
12	0	0	0	0	563	1020	
13	0	0	0	0	592	1020	
14	0	0	0	0	625	1020	
15	0	0	0	0	663	1020	
0	0	0	0	0	705	1020	
1	0	0	0	0	751	1020	
2	0	0	0	0	799	1020	
3	0	0	0	0	848	1020	
4	0	0	0	0	895	1020	
5	0	0	0	0	937	1020	
6	0	0	0	0	974	1020	
7	0	0	0	0	1004	1020	
8	0	0	0	0	1020	1020	
9	0	0	0	0	1021	1020	
10	0	0	0	0	1019	1020	
11	0	0	0	0	1010	1020	
12	0	0	0	0	992	1020	
13	0	0	0	0	970	1020	
14	0	0	0	0	943	1020	
15	0	0	0	0	912	1020	
0	0	0	0	0	877	1020	
1	0	0	0	0	835	1020	
2	0	0	0	0	790	1020	
3	0	0	0	0	743	1020	
4	0	0	0	0	697	1020	
5	0	0	0	0	651	1020	
6	0	0	0	0	608	1020	
7	0	0	0	0	571	1020	
8	0	0	0	0	537	1020	
9	0	0	0	0	506	1020	
10	0	0	0	0	478	1020	
11	0	0	0	0	454	1020	
12	0	0	0	0	436	1020	
13	0	0	0	0	423	1020	
14	0	0	0	0	413	1020	
15	0	0	0	0	405	1020	
0	0	0	0	0	401	1020	
1	0	0	0	0	400	1020	
2	0	0	0	0	402	1020	
3	0	0	0	0	406	1020	
4	0	0	0	0	410	1020	
5	0	0	0	0	413	1020	
6	0	0	0	0	416	1020	
7	0	0	0	0	417	1020	
8	0	0	0	0	418	1020	
9	0	0	0	0	419	1020	
10	0	0	0	0	419	1020	
11	0	0	0	0	421	1020	
12	0	0	0	0	423	1020	
13	0	0	0	0	423	1020	
14	0	0	0	0	424	1020	
15	0	0	0	0	427	1020	
0	0	0	0	0	429	1020	
1	0	0	0	0	432	1020	
2	0	0	0	0	433	1020	
3	0	0	0	0	435	1020	
4	0	0	0	0	435	1020	
5	0	0	0	0	435	1020	
6	0	0	0	0	436	1020	
7	0	0	0	0	437	1020	
8	0	0	0	0	438	1020	
9	0	0	0	0	439	1020	
10	0	0	0	0	439	1020	
11	0	0	0	0	439	1020	
12	0	0	0	0	440	1020	
13	0	0	0	0	441	1020	
14	0	0	0	0	443	1020	
15	0	0	0	0	444	1020	
0	0	0	0	0	444	1020	
1	0	0	0	0	444	1020	
2	0	0	0	0	445	1020	
3	0	0	0	0	445	1020	
4	0	0	0	0	445	1020	
5	0	0	0	0	446	1020	
6	0	0	0	0	446	1020	
7	0	0	0	0	447	1020	
8	0	0	0	0	449	1020	
9	0	0	0	0	450	1020	
10	0	0	0	0	452	1020	
11	0	0	0	0	454	1020	
12	0	0	0	0	454	1020	
13	0	0	0	0	456	1020	
14	0	0	0	0	457	1020	
15	0	0	0	0	457	1020	
0	0	0	0	0	458	1020	
1	0	0	0	0	459	1020	
2	0	0	0	0	460	1020	
3	0	0	0	0	461	1020	
4	0	0	0	0	461	1020	
5	0	0	0	0	463	1020	
6	0	0	0	0	463	1020	
7	0	0	0	0	464	1020	
8	0	0	0	0	466	1020	
9	0	0	0	0	467	1020	
10	0	0	0	0	468	1020	
11	0	0	0	0	469	1020	
12	0	0	0	0	471	1020	
13	0	0	0	0	473	1020	
14	0	0	0	0	474	1020	
15	0	0	0	0	476	1020	
0	0	0	0	0	477	1020	
1	0	0	0	0	479	1020	
2	0	0	0	0	480	1020	
3	0	0	0	0	481	1020	
4	0	0	0	0	483	1020	
5	0	0	0	0	485	1020	
6	0	0	0	0	486	1020	
7	0	0	0	0	487	1020	
8	0	0	0	0	487	1020	
9	0	0	0	0	488	1020	
10	0	0	0	0	489	1020	
11	0	0	0	0	489	1020	
12	0	0	0	0	490	1020	
13	0	0	0	0	491	1020	
14	0	0	0	0	493	1020	
15	0	0	0	0	494	1020	
0	0	0	0	0	496	1020	
1	0	0	0	0	497	1020	
2	0	0	0	0	497	1020	
3	0	0	0	0	499	1020	
4	0	0	0	0	500	1020	
5	0	0	0	0	502	1020	
6	0	0	0	0	503	1020	
7	0	0	0	0	504	1020	
8	0	0	0	0	505	1020	
9	0	0	0	0	506	1020	
10	0	0	0	0	508	1020	
11	0	0	0	0	508	1020	
12	0	0	0	0	509	1020	
13	0	0	0	0	511	1020	
14	0	0	0	0	512	1020	
15	0	0	0	0	512	1020	
0	0	0	0	0	512	1020	
1	0	0	0	0	513	1020	
2	0	0	0	0	515	1020	
3	0	0	0	0	515	1020	
4	0	0	0	0	516	1020	
5	0	0	0	0	517	1020	
6	0	0	0	0	518	1020	
7	0	0	0	0	520	1020	
8	0	0	0	0	522	1020	
9	0	0	0	0	522	1020	
10	0	0	0	0	522	1020	
11	0	0	0	0	522	1020	
12	0	0	0	0	523	1020	
13	0	0	0	0	523	1020	
14	0	0	0	0	524	1020	
15	0	0	0	0	526	1020	
0	0	0	0	0	527	1020	
1	0	0	0	0	529	1020	
2	0	0	0	0	531	1020	
3	0	0	0	0	532	1020	
4	0	0	0	0	532	1020	
5	0	0	0	0	534	1020	
6	0	0	0	0	535	1020	
7	0	0	0	0	536	1020	
8	0	0	0	0	536	1020	
9	0	0	0	0	537	1020	
10	0	0	0	0	538	1020	
11	0	0	0	0	539	1020	
12	0	0	0	0	541	1020	
13	0	0	0	0	543	1020	
14	0	0	0	0	544	1020	
15	0	0	0	0	546	1020	
0	0	0	0	0	548	1020	
1	0	0	0	0	550	1020	
2	0	0	0	0	551	1020	
3	0	0	0	0	552	1020	
4	0	0	0	0	553	1020	
5	0	0	0	0	554	1020	
6	0	0	0	0	556	1020	
7	0	0	0	0	557	1020	
8	0	0	0	0	558	1020	
9	0	0	0	0	560	1020	
10	0	0	0	0	559	1020	
11	0	0	0	0	560	1020	
12	0	0	0	0	560	1020	
13	0	0	0	0	561	1020	
14	0	0	0	0	563	1020	
15	0	0	0	0	565	1020	
0	0	0	0	0	566	1020	
1	0	0	0	0	568	1020	
2	0	0	0	0	569	1020	
3	0	0	0	0	570	1020	
4	0	0	0	0	572	1020	
5	0	0	0	0	573	1020	
6	0	0	0	0	575	1020	
7	0	0	0	0	576	1020	
8	0	0	0	0	576	1020	
9	0	0	0	0	576	1020	
10	0	0	0	0	576	1020	
11	0	0	0	0	576	1020	
12	0	0	0	0	576	1020	
13	0	0	0	0	576	1020	
14	0	0	0	0	577	1020	
15	0	0	0	0	578	1020	
0	0	0	0	0	578	1020	
1	0	0	0	0	579	1020	
2	0	0	0	0	579	1020	
3	0	0	0	0	579	1020	
4	0	0	0	0	577	1020	
5	0	0	0	0	577	1020	
6	0	0	0	0	576	1020	
7	0	0	0	0	576	1020	
8	0	0	0	0	575	1020	
9	0	0	0	0	574	1020	
10	0	0	0	0	572	1020	
11	0	0	0	0	571	1020	
12	0	0	0	0	569	1020	
13	0	0	0	0	568	1020	
14	0	0	0	0	566	1020	
15	0	0	0	0	565	1020	
0	0	0	0	0	564	1020	
1	0	0	0	0	563	1020	
2	0	0	0	0	563	1020	
3	0	0	0	0	561	1020	
4	0	0	0	0	559	1020	
5	0	0	0	0	558	1020	
6	0	0	0	0	557	1020	
7	0	0	0	0	555	1020	
8	0	0	0	0	551	1020	
9	0	0	0	0	548	1020	
10	0	0	0	0	545	1020	
11	0	0	0	0	543	1020	
12	0	0	0	0	539	1020	
13	0	0	0	0	537	1020	
14	0	0	0	0	534	1020	
15	0	0	0	0	531	1020	
0	0	0	0	0	528	1020	
1	0	0	0	0	526	1020	
2	0	0	0	0	523	1020	
3	0	0	0	0	519	1020	
4	0	0	0	0	516	1020	
5	0	0	0	0	514	1020	
6	0	0	0	0	510	1020	
7	0	0	0	0	507	1020	
8	0	0	0	0	503	1020	
9	0	0	0	0	499	1020	
10	0	0	0	0	497	1020	
11	0	0	0	0	494	1020	
12	0	0	0	0	490	1020	
13	0	0	0	0	486	1020	
14	0	0	0	0	483	1020	
15	0	0	0	0	480	1020	
0	0	0	0	0	478	1020	
1	0	0	0	0	475	1020	
2	0	0	0	0	473	1020	
3	0	0	0	0	471	1020	
4	0	0	0	0	469	1020	
5	0	0	0	0	467	1020	
6	0	0	0	0	463	1020	
7	0	0	0	0	461	1020	
8	0	0	0	0	459	1020	
9	0	0	0	0	457	1020	
10	0	0	0	0	456	1020	
11	0	0	0	0	453	1020	
12	0	0	0	0	451	1020	
13	0	0	0	0	449	1020	
14	0	0	0	0	446	1020	
15	0	0	0	0	444	1020	
0	0	0	0	0	442	1020	
1	0	0	0	0	441	1020	
2	0	0	0	0	440	1020	
3	0	0	0	0	438	1020	
4	0	0	0	0	436	1020	
5	0	0	0	0	435	1020	
6	0	0	0	0	435	1020	
7	0	0	0	0	435	1020	
8	0	0	0	0	435	1020	
9	0	0	0	0	435	1020	
10	0	0	0	0	434	1020	
11	0	0	0	0	432	1020	
12	0	0	0	0	432	1020	
13	0	0	0	0	430	1020	
14	0	0	0	0	430	1020	
15	0	0	0	0	429	1020	
0	0	0	0	0	429	1020	
1	0	0	0	0	429	1020	
2	0	0	0	0	429	1020	
3	0	0	0	0	430	1020	
4	0	0	0	0	431	1020	
5	0	0	0	0	432	1020	
6	0	0	0	0	432	1020	
7	0	0	0	0	432	1020	
8	0	0	0	0	432	1020	
9	0	0	0	0	431	1020	
10	0	0	0	0	431	1020	
11	0	0	0	0	431	1020	
12	0	0	0	0	432	1020	
13	0	0	0	0	433	1020	
14	0	0	0	0	433	1020	
15	0	0	0	0	434	1020	
0	0	0	0	0	434	1020	
1	0	0	0	0	434	1020	
2	0	0	0	0	435	1020	
3	0	0	0	0	436	1020	
4	0	0	0	0	436	1020	
5	0	0	0	0	438	1020	
6	0	0	0	0	439	1020	
7	0	0	0	0	440	1020	
8	0	0	0	0	440	1020	
9	0	0	0	0	441	1020	
10	0	0	0	0	441	1020	
11	0	0	0	0	441	1020	
12	0	0	0	0	442	1020	
13	0	0	0	0	442	1020	
14	0	0	0	0	444	1020	
15	0	0	0	0	445	1020	
0	0	0	0	0	444	1020	
1	0	0	0	0	444	1020	
2	0	0	0	0	443	1020	
3	0	0	0	0	443	1020	
4	0	0	0	0	445	1020	
5	0	0	0	0	446	1020	
6	0	0	0	0	446	1020	
7	0	0	0	0	447	1020	
8	0	0	0	0	448	1020	
9	0	0	0	0	448	1020	
10	0	0	0	0	449	1020	
11	0	0	0	0	449	1020	
12	0	0	0	0	449	1020	
13	0	0	0	0	451	1020	
14	0	0	0	0	452	1020	
15	0	0	0	0	452	1020	
0	0	0	0	0	453	1020	
1	0	0	0	0	454	1020	
2	0	0	0	0	455	1020	
3	0	0	0	0	455	1020	
4	0	0	0	0	455	1020	
5	0	0	0	0	457	1020	
6	0	0	0	0	458	1020	
7	0	0	0	0	459	1020	
8	0	0	0	0	460	1020	
9	0	0	0	0	460	1020	
10	0	0	0	0	461	1020	
11	0	0	0	0	461	1020	
12	0	0	0	0	462	1020	
13	0	0	0	0	463	1020	
14	0	0	0	0	464	1020	
15	0	0	0	0	466	1020	
0	0	0	0	0	467	1020	
1	0	0	0	0	467	1020	
2	0	0	0	0	469	1020	
3	0	0	0	0	470	1020	
4	0	0	0	0	471	1020	
5	0	0	0	0	472	1020	
6	0	0	0	0	472	1020	
7	0	0	0	0	474	1020	
8	0	0	0	0	474	1020	
9	0	0	0	0	475	1020	
10	0	0	0	0	475	1020	
11	0	0	0	0	476	1020	
12	0	0	0	0	476	1020	
13	0	0	0	0	477	1020	
14	0	0	0	0	478	1020	
15	0	0	0	0	479	1020	
0	0	0	0	0	479	1020	
1	0	0	0	0	481	1020	
2	0	0	0	0	482	1020	
3	0	0	0	0	483	1020	
4	0	0	0	0	483	1020	
5	0	0	0	0	483	1020	
6	0	0	0	0	483	1020	
7	0	0	0	0	484	1020	
8	0	0	0	0	484	1020	
9	0	0	0	0	485	1020	
10	0	0	0	0	487	1020	
11	0	0	0	0	487	1020	
12	0	0	0	0	489	1020	
13	0	0	0	0	488	1020	
14	0	0	0	0	489	1020	
15	0	0	0	0	491	1020	
0	0	0	0	0	490	1020	
1	0	0	0	0	490	1020	
2	0	0	0	0	490	1020	
3	0	0	0	0	490	1020	
4	0	0	0	0	489	1020	
5	0	0	0	0	490	1020	
6	0	0	0	0	490	1020	
7	0	0	0	0	491	1020	
8	0	0	0	0	492	1020	
9	0	0	0	0	494	1020	
10	0	0	0	0	495	1020	
11	0	0	0	0	496	1020	
12	0	0	0	0	497	1020	
13	0	0	0	0	498	1020	
14	0	0	0	0	498	1020	
15	0	0	0	0	499	1020	
0	0	0	0	0	498	1020	
1	0	0	0	0	498	1020	
2	0	0	0	0	498	1020	
3	0	0	0	0	498	1020	
4	0	0	0	0	497	1020	
5	0	0	0	0	496	1020	
6	0	0	0	0	495	1020	
7	0	0	0	0	495	1020	
8	0	0	0	0	495	1020	
9	0	0	0	0	494	1020	
10	0	0	0	0	495	1020	
11	0	0	0	0	496	1020	
12	0	0	0	0	497	1020	
13	0	0	0	0	497	1020	
14	0	0	0	0	498	1020	
15	0	0	0	0	499	1020	
0	0	0	0	0	499	1020	
1	0	0	0	0	500	1020	
2	0	0	0	0	500	1020	
3	0	0	0	0	500	1020	
4	0	0	0	0	500	1020	
5	0	0	0	0	501	1020	
6	0	0	0	0	500	1020	
7	0	0	0	0	500	1020	
8	0	0	0	0	500	1020	
9	0	0	0	0	500	1020	
10	0	0	0	0	500	1020	
11	0	0	0	0	500	1020	
12	0	0	0	0	500	1020	
13	0	0	0	0	500	1020	
14	0	0	0	0	500	1020	
15	0	0	0	0	501	1020	
0	0	0	0	0	501	1020	
1	0	0	0	0	501	1020	
2	0	0	0	0	502	1020	
3	0	0	0	0	501	1020	
4	0	0	0	0	502	1020	
5	0	0	0	0	501	1020	
6	0	0	0	0	501	1020	
7	0	0	0	0	501	1020	
8	0	0	0	0	502	1020	
9	0	0	0	0	501	1020	
10	0	0	0	0	501	1020	
11	0	0	0	0	500	1020	
12	0	0	0	0	500	1020	
13	0	0	0	0	501	1020	
14	0	0	0	0	502	1020	
15	0	0	0	0	502	1020	
0	0	0	0	0	503	1020	
1	0	0	0	0	502	1020	
2	0	0	0	0	502	1020	
3	0	0	0	0	503	1020	
4	0	0	0	0	504	1020	
5	0	0	0	0	504	1020	
6	0	0	0	0	504	1020	
7	0	0	0	0	504	1020	
8	0	0	0	0	503	1020	
9	0	0	0	0	504	1020	
10	0	0	0	0	504	1020	
11	0	0	0	0	504	1020	
12	0	0	0	0	504	1020	
13	0	0	0	0	504	1020	
14	0	0	0	0	504	1020	
15	0	0	0	0	503	1020	
0	0	0	0	0	503	1020	
1	0	0	0	0	503	1020	
2	0	0	0	0	503	1020	
3	0	0	0	0	503	1020	
4	0	0	0	0	503	1020	
5	0	0	0	0	502	1020	
6	0	0	0	0	501	1020	
7	0	0	0	0	502	1020	
8	0	0	0	0	502	1020	
9	0	0	0	0	502	1020	
10	0	0	0	0	502	1020	
11	0	0	0	0	503	1020	
12	0	0	0	0	503	1020	
13	0	0	0	0	503	1020	
14	0	0	0	0	503	1020	
15	0	0	0	0	503	1020	
0	0	0	0	0	503	1020	
1	0	0	0	0	502	1020	
2	0	0	0	0	502	1020	
3	0	0	0	0	502	1020	
4	0	0	0	0	502	1020	
5	0	0	0	0	501	1020	
6	0	0	0	0	502	1020	
7	0	0	0	0	502	1020	
8	0	0	0	0	501	1020	
9	0	0	0	0	502	1020	
10	0	0	0	0	503	1020	
11	0	0	0	0	503	1020	
12	0	0	0	0	503	1020	
13	0	0	0	0	503	1020	
14	0	0	0	0	503	1020	
15	0	0	0	0	504	1020	
0	0	0	0	0	504	1020	
1	0	0	0	0	503	1020	
2	0	0	0	0	503	1020	
3	0	0	0	0	503	1020	
4	0	0	0	0	503	1020	
5	0	0	0	0	503	1020	
6	0	0	0	0	502	1020	
7	0	0	0	0	502	1020	
8	0	0	0	0	502	1020	
9	0	0	0	0	500	1020	
10	0	0	0	0	500	1020	
11	0	0	0	0	500	1020	
12	0	0	0	0	502	1020	
13	0	0	0	0	502	1020	
14	0	0	0	0	502	1020	
15	0	0	0	0	503	1020	
0	0	0	0	0	504	1020	
1	0	0	0	0	504	1020	
2	0	0	0	0	504	1020	
3	0	0	0	0	504	1020	
4	0	0	0	0	504	1020	
5	0	0	0	0	503	1020	
6	0	0	0	0	504	1020	
7	0	0	0	0	505	1020	
8	0	0	0	0	505	1020	
9	0	0	0	0	505	1020	
10	0	0	0	0	506	1020	
11	0	0	0	0	506	1020	
12	0	0	0	0	506	1020	
13	0	0	0	0	505	1020	
14	0	0	0	0	506	1020	
15	0	0	0	0	505	1020	
0	0	0	0	0	506	1020	
1	0	0	0	0	507	1020	
2	0	0	0	0	507	1020	
3	0	0	0	0	508	1020	
4	0	0	0	0	507	1020	
5	0	0	0	0	506	1020	
6	0	0	0	0	505	1020	
7	0	0	0	0	504	1020	
8	0	0	0	0	504	1020	
9	0	0	0	0	504	1020	
10	0	0	0	0	503	1020	
11	0	0	0	0	503	1020	
12	0	0	0	0	504	1020	
13	0	0	0	0	505	1020	
14	0	0	0	0	506	1020	
15	0	0	0	0	506	1020	
0	0	0	0	0	507	1020	
1	0	0	0	0	508	1020	
2	0	0	0	0	510	1020	
3	0	0	0	0	510	1020	
4	0	0	0	0	511	1020	
5	0	0	0	0	511	1020	
6	0	0	0	0	512	1020	
7	0	0	0	0	514	1020	
8	0	0	0	0	515	1020	
9	0	0	0	0	517	1020	
10	0	0	0	0	519	1020	
11	0	0	0	0	521	1020	
12	0	0	0	0	524	1020	
13	0	0	0	0	526	1020	
14	0	0	0	0	527	1020	
15	0	0	0	0	528	1020	
0	0	0	0	0	529	1020	
1	0	0	0	0	529	1020	
2	0	0	0	0	528	1020	
3	0	0	0	0	526	1020	
4	0	0	0	0	526	1020	
5	0	0	0	0	526	1020	
6	0	0	0	0	526	1020	
7	0	0	0	0	525	1020	
8	0	0	0	0	525	1020	
9	0	0	0	0	525	1020	
10	0	0	0	0	526	1020	
11	0	0	0	0	527	1020	
12	0	0	0	0	529	1020	
13	0	0	0	0	530	1020	
14	0	0	0	0	535	1020	
15	0	0	0	0	537	1020	
0	0	0	0	0	540	1020	
1	0	0	0	0	543	1020	
2	0	0	0	0	546	1020	
3	0	0	0	0	548	1020	
4	0	0	0	0	549	1020	
5	0	0	0	0	551	1020	
6	0	0	0	0	552	1020	
7	0	0	0	0	550	1020	
8	0	0	0	0	548	1020	
9	0	0	0	0	546	1020	
10	0	0	0	0	545	1020	
11	0	0	0	0	544	1020	
12	0	0	0	0	543	1020	
13	0	0	0	0	543	1020	
14	0	0	0	0	542	1020	
15	0	0	0	0	541	1020	
0	0	0	0	0	540	1020	
1	0	0	0	0	539	1020	
2	0	0	0	0	540	1020	
3	0	0	0	0	541	1020	
4	0	0	0	0	541	1020	
5	0	0	0	0	542	1020	
6	0	0	0	0	543	1020	
7	0	0	0	0	542	1020	
8	0	0	0	0	540	1020	
9	0	0	0	0	538	1020	
10	0	0	0	0	536	1020	
11	0	0	0	0	534	1020	
12	0	0	0	0	531	1020	
13	0	0	0	0	529	1020	
14	0	0	0	0	529	1020	
15	0	0	0	0	527	1020	
0	0	0	0	0	526	1020	
1	0	0	0	0	526	1020	
2	0	0	0	0	525	1020	
3	0	0	0	0	526	1020	
4	0	0	0	0	527	1020	
5	0	0	0	0	526	1020	
6	0	0	0	0	525	1020	
7	0	0	0	0	523	1020	
8	0	0	0	0	522	1020	
9	0	0	0	0	520	1020	
10	0	0	0	0	517	1020	
11	0	0	0	0	515	1020	
12	0	0	0	0	512	1020	
13	0	0	0	0	509	1020	
14	0	0	0	0	506	1020	
15	0	0	0	0	503	1020	
0	0	0	0	0	500	1020	
1	0	0	0	0	497	1020	
2	0	0	0	0	494	1020	
3	0	0	0	0	493	1020	
4	0	0	0	0	491	1020	
5	0	0	0	0	488	1020	
6	0	0	0	0	486	1020	
7	0	0	0	0	484	1020	
8	0	0	0	0	483	1020	
9	0	0	0	0	482	1020	
10	0	0	0	0	481	1020	
11	0	0	0	0	480	1020	
12	0	0	0	0	480	1020	
13	0	0	0	0	479	1020	
14	0	0	0	0	479	1020	
15	0	0	0	0	478	1020	
0	0	0	0	0	478	1020	
1	0	0	0	0	478	1020	
2	0	0	0	0	477	1020	
3	0	0	0	0	477	1020	
4	0	0	0	0	478	1020	
5	0	0	0	0	478	1020	
6	0	0	0	0	478	1020	
7	0	0	0	0	479	1020	
8	0	0	0	0	479	1020	
9	0	0	0	0	480	1020	
10	0	0	0	0	481	1020	
11	0	0	0	0	481	1020	
12	0	0	0	0	481	1020	
13	0	0	0	0	481	1020	
14	0	0	0	0	481	1020	
15	0	0	0	0	481	1020	
0	0	0	0	0	482	1020	
1	0	0	0	0	482	1020	
2	0	0	0	0	482	1020	
3	0	0	0	0	483	1020	
4	0	0	0	0	484	1020	
5	0	0	0	0	485	1020	
6	0	0	0	0	485	1020	
7	0	0	0	0	485	1020	
8	0	0	0	0	485	1020	
9	0	0	0	0	484	1020	
10	0	0	0	0	484	1020	
11	0	0	0	0	485	1020	
12	0	0	0	0	486	1020	
13	0	0	0	0	487	1020	
14	0	0	0	0	487	1020	
15	0	0	0	0	487	1020	
0	0	0	0	0	486	1020	
1	0	0	0	0	486	1020	
2	0	0	0	0	486	1020	
3	0	0	0	0	484	1020	
4	0	0	0	0	484	1020	
5	0	0	0	0	484	1020	
6	0	0	0	0	482	1020	
7	0	0	0	0	480	1020	
8	0	0	0	0	475	1020	
9	0	0	0	0	468	1020	
10	0	0	0	0	460	1020	
11	0	0	0	0	450	1020	
12	0	0	0	0	441	1020	
13	0	0	0	0	433	1020	
14	0	0	0	0	428	1020	
15	0	0	0	0	426	1020	
0	0	0	0	0	425	1020	
1	0	0	0	0	425	1020	
2	0	0	0	0	430	1020	
3	0	0	0	0	434	1020	
4	0	0	0	0	439	1020	
5	0	0	0	0	445	1020	
6	0	0	0	0	452	1020	
7	0	0	0	0	461	1020	
8	0	0	0	0	470	1020	
9	0	0	0	0	483	1020	
10	0	0	0	0	497	1020	
11	0	0	0	0	514	1020	
12	0	0	0	0	534	1020	
13	0	0	0	0	558	1020	
14	0	0	0	0	585	1020	
15	0	0	0	0	619	1020	
0	0	0	0	0	656	1020	
1	0	0	0	0	699	1020	
2	0	0	0	0	744	1020	
3	0	0	0	0	793	1020	
4	0	0	0	0	844	1020	
5	0	0	0	0	892	1020	
6	0	0	0	0	939	1020	
7	0	0	0	0	980	1020	
8	0	0	0	0	1012	1020	
9	0	0	0	0	1022	1020	
10	0	0	0	0	1022	1020	
11	0	0	0	0	1022	1020	
12	0	0	0	0	1021	1020	
13	0	0	0	0	1006	1020	
14	0	0	0	0	981	1020	
15	0	0	0	0	948	1020	
0	0	0	0	0	913	1020	
1	0	0	0	0	877	1020	
2	0	0	0	0	833	1020	
3	0	0	0	0	785	1020	
4	0	0	0	0	736	1020	
5	0	0	0	0	687	1020	
6	0	0	0	0	641	1020	
7	0	0	0	0	598	1020	
8	0	0	0	0	558	1020	
9	0	0	0	0	522	1020	
10	0	0	0	0	489	1020	
11	0	0	0	0	461	1020	
12	0	0	0	0	438	1020	
13	0	0	0	0	419	1020	
14	0	0	0	0	403	1020	
15	0	0	0	0	391	1020	
0	0	0	0	0	382	1020	
1	0	0	0	0	376	1020	
2	0	0	0	0	374	1020	
3	0	0	0	0	374	1020	
4	0	0	0	0	378	1020	
5	0	0	0	0	385	1020	
6	0	0	0	0	391	1020	
7	0	0	0	0	398	1020	
8	0	0	0	0	403	1020	
9	0	0	0	0	406	1020	
10	0	0	0	0	407	1020	
11	0	0	0	0	408	1020	
12	0	0	0	0	412	1020	
13	0	0	0	0	415	1020	
14	0	0	0	0	417	1020	
15	0	0	0	0	419	1020	
0	0	0	0	0	421	1020	
1	0	0	0	0	422	1020	
2	0	0	0	0	423	1020	
3	0	0	0	0	424	1020	
4	0	0	0	0	428	1020	
5	0	0	0	0	430	1020	
6	0	0	0	0	432	1020	
7	0	0	0	0	432	1020	
8	0	0	0	0	433	1020	
9	0	0	0	0	434	1020	
10	0	0	0	0	435	1020	
11	0	0	0	0	437	1020	
12	0	0	0	0	438	1020	
13	0	0	0	0	439	1020	
14	0	0	0	0	440	1020	
15	0	0	0	0	440	1020	
0	0	0	0	0	440	1020	
1	0	0	0	0	440	1020	
2	0	0	0	0	441	1020	
3	0	0	0	0	442	1020	
4	0	0	0	0	444	1020	
5	0	0	0	0	445	1020	
6	0	0	0	0	446	1020	
7	0	0	0	0	449	1020	
8	0	0	0	0	452	1020	
9	0	0	0	0	452	1020	
10	0	0	0	0	453	1020	
11	0	0	0	0	452	1020	
12	0	0	0	0	454	1020	
13	0	0	0	0	455	1020	
14	0	0	0	0	455	1020	
15	0	0	0	0	455	1020	
0	0	0	0	0	456	1020	
1	0	0	0	0	457	1020	
2	0	0	0	0	460	1020	
3	0	0	0	0	460	1020	
4	0	0	0	0	461	1020	
5	0	0	0	0	462	1020	
6	0	0	0	0	463	1020	
7	0	0	0	0	465	1020	
8	0	0	0	0	467	1020	
9	0	0	0	0	468	1020	
10	0	0	0	0	469	1020	
11	0	0	0	0	471	1020	
12	0	0	0	0	472	1020	
13	0	0	0	0	473	1020	
14	0	0	0	0	474	1020	
15	0	0	0	0	475	1020	
0	0	0	0	0	478	1020	
1	0	0	0	0	479	1020	
2	0	0	0	0	481	1020	
3	0	0	0	0	481	1020	
4	0	0	0	0	481	1020	
5	0	0	0	0	482	1020	
6	0	0	0	0	484	1020	
7	0	0	0	0	485	1020	
8	0	0	0	0	486	1020	
9	0	0	0	0	487	1020	
10	0	0	0	0	488	1020	
11	0	0	0	0	489	1020	
12	0	0	0	0	491	1020	
13	0	0	0	0	493	1020	
14	0	0	0	0	494	1020	
15	0	0	0	0	496	1020	
0	0	0	0	0	497	1020	
1	0	0	0	0	499	1020	
2	0	0	0	0	500	1020	
3	0	0	0	0	500	1020	
4	0	0	0	0	502	1020	
5	0	0	0	0	502	1020	
6	0	0	0	0	503	1020	
7	0	0	0	0	504	1020	
8	0	0	0	0	504	1020	
9	0	0	0	0	505	1020	
10	0	0	0	0	508	1020	
11	0	0	0	0	509	1020	
12	0	0	0	0	510	1020	
13	0	0	0	0	510	1020	
14	0	0	0	0	510	1020	
15	0	0	0	0	511	1020	
0	0	0	0	0	512	1020	
1	0	0	0	0	512	1020	
2	0	0	0	0	513	1020	
3	0	0	0	0	514	1020	
4	0	0	0	0	514	1020	
5	0	0	0	0	516	1020	
6	0	0	0	0	517	1020	
7	0	0	0	0	517	1020	
8	0	0	0	0	518	1020	
9	0	0	0	0	519	1020	
10	0	0	0	0	521	1020	
11	0	0	0	0	523	1020	
12	0	0	0	0	524	1020	
13	0	0	0	0	526	1020	
14	0	0	0	0	529	1020	
15	0	0	0	0	529	1020	
0	0	0	0	0	531	1020	
1	0	0	0	0	532	1020	
2	0	0	0	0	532	1020	
3	0	0	0	0	531	1020	
4	0	0	0	0	532	1020	
5	0	0	0	0	531	1020	
6	0	0	0	0	532	1020	
7	0	0	0	0	534	1020	
8	0	0	0	0	536	1020	
9	0	0	0	0	537	1020	
10	0	0	0	0	538	1020	
11	0	0	0	0	540	1020	
12	0	0	0	0	541	1020	
13	0	0	0	0	543	1020	
14	0	0	0	0	543	1020	
15	0	0	0	0	544	1020	
0	0	0	0	0	546	1020	
1	0	0	0	0	547	1020	
2	0	0	0	0	547	1020	
3	0	0	0	0	547	1020	
4	0	0	0	0	547	1020	
5	0	0	0	0	548	1020	
6	0	0	0	0	549	1020	
7	0	0	0	0	551	1020	
8	0	0	0	0	551	1020	
9	0	0	0	0	552	1020	
10	0	0	0	0	555	1020	
11	0	0	0	0	556	1020	
12	0	0	0	0	558	1020	
13	0	0	0	0	560	1020	
14	0	0	0	0	561	1020	
15	0	0	0	0	562	1020	
0	0	0	0	0	562	1020	
1	0	0	0	0	564	1020	
2	0	0	0	0	564	1020	
3	0	0	0	0	565	1020	
4	0	0	0	0	567	1020	
5	0	0	0	0	568	1020	
6	0	0	0	0	569	1020	
7	0	0	0	0	569	1020	
8	0	0	0	0	571	1020	
9	0	0	0	0	572	1020	
10	0	0	0	0	572	1020	
11	0	0	0	0	574	1020	
12	0	0	0	0	575	1020	
13	0	0	0	0	575	1020	
14	0	0	0	0	575	1020	
15	0	0	0	0	577	1020	
0	0	0	0	0	577	1020	
1	0	0	0	0	576	1020	
2	0	0	0	0	576	1020	
3	0	0	0	0	576	1020	
4	0	0	0	0	575	1020	
5	0	0	0	0	575	1020	
6	0	0	0	0	574	1020	
7	0	0	0	0	574	1020	
8	0	0	0	0	573	1020	
9	0	0	0	0	571	1020	
10	0	0	0	0	570	1020	
11	0	0	0	0	568	1020	
12	0	0	0	0	567	1020	
13	0	0	0	0	566	1020	
14	0	0	0	0	563	1020	
15	0	0	0	0	563	1020	
0	0	0	0	0	562	1020	
1	0	0	0	0	560	1020	
2	0	0	0	0	560	1020	
3	0	0	0	0	559	1020	
4	0	0	0	0	557	1020	
5	0	0	0	0	555	1020	
6	0	0	0	0	553	1020	
7	0	0	0	0	551	1020	
8	0	0	0	0	549	1020	
9	0	0	0	0	546	1020	
10	0	0	0	0	543	1020	
11	0	0	0	0	540	1020	
12	0	0	0	0	536	1020	
13	0	0	0	0	535	1020	
14	0	0	0	0	534	1020	
15	0	0	0	0	531	1020	
0	0	0	0	0	528	1020	
1	0	0	0	0	525	1020	
2	0	0	0	0	523	1020	
3	0	0	0	0	520	1020	
4	0	0	0	0	517	1020	
5	0	0	0	0	513	1020	
6	0	0	0	0	511	1020	
7	0	0	0	0	508	1020	
8	0	0	0	0	504	1020	
9	0	0	0	0	501	1020	
10	0	0	0	0	498	1020	
11	0	0	0	0	495	1020	
12	0	0	0	0	491	1020	
13	0	0	0	0	489	1020	
14	0	0	0	0	487	1020	
15	0	0	0	0	485	1020	
0	0	0	0	0	483	1020	
1	0	0	0	0	479	1020	
2	0	0	0	0	478	1020	
3	0	0	0	0	477	1020	
4	0	0	0	0	474	1020	
5	0	0	0	0	471	1020	
6	0	0	0	0	468	1020	
7	0	0	0	0	466	1020	
8	0	0	0	0	463	1020	
9	0	0	0	0	459	1020	
10	0	0	0	0	455	1020	
11	0	0	0	0	455	1020	
12	0	0	0	0	451	1020	
13	0	0	0	0	450	1020	
14	0	0	0	0	447	1020	
15	0	0	0	0	446	1020	
0	0	0	0	0	445	1020	
1	0	0	0	0	443	1020	
2	0	0	0	0	441	1020	
3	0	0	0	0	442	1020	
4	0	0	0	0	441	1020	
5	0	0	0	0	438	1020	
6	0	0	0	0	436	1020	
7	0	0	0	0	436	1020	
8	0	0	0	0	434	1020	
9	0	0	0	0	432	1020	
10	0	0	0	0	432	1020	
11	0	0	0	0	431	1020	
12	0	0	0	0	430	1020	
13	0	0	0	0	430	1020	
14	0	0	0	0	430	1020	
15	0	0	0	0	430	1020	
0	0	0	0	0	431	1020	
1	0	0	0	0	432	1020	
2	0	0	0	0	433	1020	
3	0	0	0	0	433	1020	
4	0	0	0	0	434	1020	
5	0	0	0	0	434	1020	
6	0	0	0	0	435	1020	
7	0	0	0	0	435	1020	
8	0	0	0	0	434	1020	
9	0	0	0	0	434	1020	
10	0	0	0	0	435	1020	
11	0	0	0	0	435	1020	
12	0	0	0	0	435	1020	
13	0	0	0	0	434	1020	
14	0	0	0	0	433	1020	
15	0	0	0	0	433	1020	
0	0	0	0	0	434	1020	
1	0	0	0	0	435	1020	
2	0	0	0	0	436	1020	
3	0	0	0	0	436	1020	
4	0	0	0	0	437	1020	
5	0	0	0	0	438	1020	
6	0	0	0	0	438	1020	
7	0	0	0	0	438	1020	
8	0	0	0	0	438	1020	
9	0	0	0	0	438	1020	
10	0	0	0	0	439	1020	
11	0	0	0	0	439	1020	
12	0	0	0	0	441	1020	
13	0	0	0	0	442	1020	
14	0	0	0	0	443	1020	
15	0	0	0	0	444	1020	
0	0	0	0	0	444	1020	
1	0	0	0	0	444	1020	
2	0	0	0	0	446	1020	
3	0	0	0	0	447	1020	
4	0	0	0	0	447	1020	
5	0	0	0	0	448	1020	
6	0	0	0	0	448	1020	
7	0	0	0	0	449	1020	
8	0	0	0	0	451	1020	
9	0	0	0	0	450	1020	
10	0	0	0	0	450	1020	
11	0	0	0	0	450	1020	
12	0	0	0	0	451	1020	
13	0	0	0	0	452	1020	
14	0	0	0	0	453	1020	
15	0	0	0	0	455	1020	
0	0	0	0	0	456	1020	
1	0	0	0	0	455	1020	
2	0	0	0	0	457	1020	
3	0	0	0	0	459	1020	
4	0	0	0	0	458	1020	
5	0	0	0	0	459	1020	
6	0	0	0	0	460	1020	
7	0	0	0	0	460	1020	
8	0	0	0	0	459	1020	
9	0	0	0	0	460	1020	
10	0	0	0	0	461	1020	
11	0	0	0	0	462	1020	
12	0	0	0	0	463	1020	
13	0	0	0	0	465	1020	
14	0	0	0	0	465	1020	
15	0	0	0	0	465	1020	
0	0	0	0	0	467	1020	
1	0	0	0	0	469	1020	
2	0	0	0	0	470	1020	
3	0	0	0	0	471	1020	
4	0	0	0	0	473	1020	
5	0	0	0	0	474	1020	
6	0	0	0	0	476	1020	
7	0	0	0	0	477	1020	
8	0	0	0	0	478	1020	
9	0	0	0	0	479	1020	
10	0	0	0	0	480	1020	
11	0	0	0	0	480	1020	
12	0	0	0	0	480	1020	
13	0	0	0	0	480	1020	
14	0	0	0	0	479	1020	
15	0	0	0	0	478	1020	
0	0	0	0	0	480	1020	
1	0	0	0	0	480	1020	
2	0	0	0	0	480	1020	
3	0	0	0	0	482	1020	
4	0	0	0	0	482	1020	
5	0	0	0	0	484	1020	
6	0	0	0	0	485	1020	
7	0	0	0	0	486	1020	
8	0	0	0	0	486	1020	
9	0	0	0	0	486	1020	
10	0	0	0	0	487	1020	
11	0	0	0	0	487	1020	
12	0	0	0	0	488	1020	
13	0	0	0	0	488	1020	
14	0	0	0	0	488	1020	
15	0	0	0	0	488	1020	
0	0	0	0	0	489	1020	
1	0	0	0	0	490	1020	
2	0	0	0	0	491	1020	
3	0	0	0	0	492	1020	
4	0	0	0	0	493	1020	
5	0	0	0	0	494	1020	
6	0	0	0	0	494	1020	
7	0	0	0	0	495	1020	
8	0	0	0	0	496	1020	
9	0	0	0	0	496	1020	
10	0	0	0	0	496	1020	
11	0	0	0	0	496	1020	
12	0	0	0	0	496	1020	
13	0	0	0	0	497	1020	
14	0	0	0	0	496	1020	
15	0	0	0	0	496	1020	
0	0	0	0	0	496	1020	
1	0	0	0	0	495	1020	
2	0	0	0	0	495	1020	
3	0	0	0	0	496	1020	
4	0	0	0	0	496	1020	
5	0	0	0	0	497	1020	
6	0	0	0	0	498	1020	
7	0	0	0	0	500	1020	
8	0	0	0	0	501	1020	
9	0	0	0	0	501	1020	
10	0	0	0	0	502	1020	
11	0	0	0	0	502	1020	
12	0	0	0	0	502	1020	
13	0	0	0	0	503	1020	
14	0	0	0	0	503	1020	
15	0	0	0	0	503	1020	
0	0	0	0	0	503	1020	
1	0	0	0	0	503	1020	
2	0	0	0	0	503	1020	
3	0	0	0	0	503	1020	
4	0	0	0	0	503	1020	
5	0	0	0	0	503	1020	
6	0	0	0	0	503	1020	
7	0	0	0	0	503	1020	
8	0	0	0	0	504	1020	
9	0	0	0	0	504	1020	
10	0	0	0	0	506	1020	
11	0	0	0	0	508	1020	
12	0	0	0	0	509	1020	
13	0	0	0	0	508	1020	
14	0	0	0	0	508	1020	
15	0	0	0	0	508	1020	
0	0	0	0	0	508	1020	
1	0	0	0	0	508	1020	
2	0	0	0	0	508	1020	
3	0	0	0	0	508	1020	
4	0	0	0	0	506	1020	
5	0	0	0	0	507	1020	
6	0	0	0	0	507	1020	
7	0	0	0	0	507	1020	
8	0	0	0	0	507	1020	
9	0	0	0	0	508	1020	
10	0	0	0	0	508	1020	
11	0	0	0	0	508	1020	
12	0	0	0	0	508	1020	
13	0	0	0	0	507	1020	
14	0	0	0	0	505	1020	
15	0	0	0	0	504	1020	
0	0	0	0	0	504	1020	
1	0	0	0	0	502	1020	
2	0	0	0	0	502	1020	
3	0	0	0	0	502	1020	
4	0	0	0	0	503	1020	
5	0	0	0	0	503	1020	
6	0	0	0	0	503	1020	
7	0	0	0	0	504	1020	
8	0	0	0	0	504	1020	
9	0	0	0	0	504	1020	
10	0	0	0	0	503	1020	
11	0	0	0	0	504	1020	
12	0	0	0	0	506	1020	
13	0	0	0	0	506	1020	
14	0	0	0	0	505	1020	
15	0	0	0	0	505	1020	
0	0	0	0	0	505	1020	
1	0	0	0	0	506	1020	
2	0	0	0	0	507	1020	
3	0	0	0	0	508	1020	
4	0	0	0	0	508	1020	
5	0	0	0	0	509	1020	
6	0	0	0	0	508	1020	
7	0	0	0	0	506	1020	
8	0	0	0	0	505	1020	
9	0	0	0	0	504	1020	
10	0	0	0	0	504	1020	
11	0	0	0	0	505	1020	
12	0	0	0	0	506	1020	
13	0	0	0	0	506	1020	
14	0	0	0	0	506	1020	
15	0	0	0	0	505	1020	
0	0	0	0	0	506	1020	
1	0	0	0	0	506	1020	
2	0	0	0	0	505	1020	
3	0	0	0	0	505	1020	
4	0	0	0	0	505	1020	
5	0	0	0	0	505	1020	
6	0	0	0	0	504	1020	
7	0	0	0	0	505	1020	
8	0	0	0	0	506	1020	
9	0	0	0	0	506	1020	
10	0	0	0	0	506	1020	
11	0	0	0	0	506	1020	
12	0	0	0	0	508	1020	
13	0	0	0	0	511	1020	
14	0	0	0	0	512	1020	
15	0	0	0	0	513	1020	
0	0	0	0	0	514	1020	
1	0	0	0	0	514	1020	
2	0	0	0	0	515	1020	
3	0	0	0	0	516	1020	
4	0	0	0	0	517	1020	
5	0	0	0	0	518	1020	
6	0	0	0	0	520	1020	
7	0	0	0	0	523	1020	
8	0	0	0	0	525	1020	
9	0	0	0	0	526	1020	
10	0	0	0	0	527	1020	
11	0	0	0	0	528	1020	
12	0	0	0	0	529	1020	
13	0	0	0	0	530	1020	
14	0	0	0	0	530	1020	
15	0	0	0	0	530	1020	
0	0	0	0	0	528	1020	
1	0	0	0	0	528	1020	
2	0	0	0	0	528	1020	
3	0	0	0	0	528	1020	
4	0	0	0	0	529	1020	
5	0	0	0	0	528	1020	
6	0	0	0	0	528	1020	
7	0	0	0	0	530	1020	
8	0	0	0	0	533	1020	
9	0	0	0	0	536	1020	
10	0	0	0	0	537	1020	
11	0	0	0	0	540	1020	
12	0	0	0	0	542	1020	
13	0	0	0	0	545	1020	
14	0	0	0	0	547	1020	
15	0	0	0	0	551	1020	
0	0	0	0	0	553	1020	
1	0	0	0	0	553	1020	
2	0	0	0	0	555	1020	
3	0	0	0	0	553	1020	
4	0	0	0	0	551	1020	
5	0	0	0	0	550	1020	
6	0	0	0	0	547	1020	
7	0	0	0	0	545	1020	
8	0	0	0	0	543	1020	
9	0	0	0	0	542	1020	
10	0	0	0	0	542	1020	
11	0	0	0	0	541	1020	
12	0	0	0	0	540	1020	
13	0	0	0	0	539	1020	
14	0	0	0	0	540	1020	
15	0	0	0	0	542	1020	
0	0	0	0	0	543	1020	
1	0	0	0	0	545	1020	
2	0	0	0	0	545	1020	
3	0	0	0	0	545	1020	
4	0	0	0	0	544	1020	
5	0	0	0	0	542	1020	
6	0	0	0	0	539	1020	
7	0	0	0	0	538	1020	
8	0	0	0	0	536	1020	
9	0	0	0	0	534	1020	
10	0	0	0	0	534	1020	
11	0	0	0	0	533	1020	
12	0	0	0	0	532	1020	
13	0	0	0	0	531	1020	
14	0	0	0	0	531	1020	
15	0	0	0	0	531	1020	
0	0	0	0	0	530	1020	
1	0	0	0	0	528	1020	
2	0	0	0	0	527	1020	
3	0	0	0	0	524	1020	
4	0	0	0	0	522	1020	
5	0	0	0	0	519	1020	
6	0	0	0	0	517	1020	
7	0	0	0	0	514	1020	
8	0	0	0	0	511	1020	
9	0	0	0	0	507	1020	
10	0	0	0	0	505	1020	
11	0	0	0	0	504	1020	
12	0	0	0	0	502	1020	
13	0	0	0	0	500	1020	
14	0	0	0	0	498	1020	
15	0	0	0	0	496	1020	
0	0	0	0	0	495	1020	
1	0	0	0	0	492	1020	
2	0	0	0	0	491	1020	
3	0	0	0	0	490	1020	
4	0	0	0	0	488	1020	
5	0	0	0	0	486	1020	
6	0	0	0	0	484	1020	
7	0	0	0	0	483	1020	
8	0	0	0	0	481	1020	
9	0	0	0	0	479	1020	
10	0	0	0	0	478	1020	
11	0	0	0	0	478	1020	
12	0	0	0	0	477	1020	
13	0	0	0	0	477	1020	
14	0	0	0	0	477	1020	
15	0	0	0	0	476	1020	
0	0	0	0	0	476	1020	
1	0	0	0	0	477	1020	
2	0	0	0	0	477	1020	
3	0	0	0	0	477	1020	
4	0	0	0	0	477	1020	
5	0	0	0	0	477	1020	
6	0	0	0	0	477	1020	
7	0	0	0	0	477	1020	
8	0	0	0	0	476	1020	
9	0	0	0	0	476	1020	
10	0	0	0	0	477	1020	
11	0	0	0	0	479	1020	
12	0	0	0	0	480	1020	
13	0	0	0	0	480	1020	
14	0	0	0	0	481	1020	
15	0	0	0	0	483	1020	
0	0	0	0	0	483	1020	
1	0	0	0	0	484	1020	
2	0	0	0	0	485	1020	
3	0	0	0	0	486	1020	
4	0	0	0	0	486	1020	
5	0	0	0	0	487	1020	
6	0	0	0	0	486	1020	
7	0	0	0	0	486	1020	
8	0	0	0	0	486	1020	
9	0	0	0	0	487	1020	
10	0	0	0	0	487	1020	
11	0	0	0	0	487	1020	
12	0	0	0	0	487	1020	
13	0	0	0	0	487	1020	
14	0	0	0	0	489	1020	
15	0	0	0	0	488	1020	
0	0	0	0	0	487	1020	
1	0	0	0	0	487	1020	
2	0	0	0	0	486	1020	
3	0	0	0	0	483	1020	
4	0	0	0	0	479	1020	
5	0	0	0	0	473	1020	
6	0	0	0	0	465	1020	
7	0	0	0	0	455	1020	
8	0	0	0	0	446	1020	
9	0	0	0	0	438	1020	
10	0	0	0	0	431	1020	
11	0	0	0	0	426	1020	
12	0	0	0	0	424	1020	
13	0	0	0	0	424	1020	
14	0	0	0	0	427	1020	
15	0	0	0	0	430	1020	
0	0	0	0	0	435	1020	
1	0	0	0	0	442	1020	
2	0	0	0	0	450	1020	
3	0	0	0	0	458	1020	
4	0	0	0	0	470	1020	
5	0	0	0	0	480	1020	
6	0	0	0	0	492	1020	
7	0	0	0	0	507	1020	
8	0	0	0	0	523	1020	
9	0	0	0	0	543	1020	
10	0	0	0	0	568	1020	
11	0	0	0	0	598	1020	
12	0	0	0	0	632	1020	
13	0	0	0	0	671	1020	
14	0	0	0	0	713	1020	
15	0	0	0	0	758	1020	
0	0	0	0	0	807	1020	
1	0	0	0	0	859	1020	
2	0	0	0	0	909	1020	
3	0	0	0	0	955	1020	
4	0	0	0	0	995	1020	
5	0	0	0	0	1022	1020	
6	0	0	0	0	1022	1020	
7	0	0	0	0	1022	1020	
8	0	0	0	0	1022	1020	
9	0	0	0	0	1022	1020	
10	0	0	0	0	1012	1020	
11	0	0	0	0	986	1020	
12	0	0	0	0	953	1020	
13	0	0	0	0	916	1020	
14	0	0	0	0	877	1020	
15	0	0	0	0	834	1020	
0	0	0	0	0	786	1020	
1	0	0	0	0	736	1020	
2	0	0	0	0	686	1020	
3	0	0	0	0	639	1020	
4	0	0	0	0	593	1020	
5	0	0	0	0	553	1020	
6	0	0	0	0	519	1020	
7	0	0	0	0	486	1020	
8	0	0	0	0	458	1020	
9	0	0	0	0	433	1020	
10	0	0	0	0	415	1020	
11	0	0	0	0	402	1020	
12	0	0	0	0	393	1020	
13	0	0	0	0	385	1020	
14	0	0	0	0	380	1020	
15	0	0	0	0	380	1020	
0	0	0	0	0	383	1020	
1	0	0	0	0	389	1020	
2	0	0	0	0	395	1020	
3	0	0	0	0	401	1020	
4	0	0	0	0	407	1020	
5	0	0	0	0	411	1020	
6	0	0	0	0	414	1020	
7	0	0	0	0	416	1020	
8	0	0	0	0	418	1020	
9	0	0	0	0	420	1020	
10	0	0	0	0	423	1020	
11	0	0	0	0	424	1020	
12	0	0	0	0	427	1020	
13	0	0	0	0	429	1020	
14	0	0	0	0	430	1020	
15	0	0	0	0	433	1020	
0	0	0	0	0	436	1020	
1	0	0	0	0	438	1020	
2	0	0	0	0	439	1020	
3	0	0	0	0	440	1020	
4	0	0	0	0	442	1020	
5	0	0	0	0	443	1020	
6	0	0	0	0	443	1020	
7	0	0	0	0	444	1020	
8	0	0	0	0	445	1020	
9	0	0	0	0	446	1020	
10	0	0	0	0	446	1020	
11	0	0	0	0	447	1020	
12	0	0	0	0	448	1020	
13	0	0	0	0	448	1020	
14	0	0	0	0	448	1020	
15	0	0	0	0	448	1020	
0	0	0	0	0	448	1020	
1	0	0	0	0	449	1020	
2	0	0	0	0	450	1020	
3	0	0	0	0	452	1020	
4	0	0	0	0	453	1020	
5	0	0	0	0	454	1020	
6	0	0	0	0	454	1020	
7	0	0	0	0	455	1020	
8	0	0	0	0	456	1020	
9	0	0	0	0	458	1020	
10	0	0	0	0	459	1020	
11	0	0	0	0	460	1020	
12	0	0	0	0	461	1020	
13	0	0	0	0	461	1020	
14	0	0	0	0	460	1020	
15	0	0	0	0	461	1020	
0	0	0	0	0	463	1020	
1	0	0	0	0	464	1020	
2	0	0	0	0	466	1020	
3	0	0	0	0	466	1020	
4	0	0	0	0	467	1020	
5	0	0	0	0	468	1020	
6	0	0	0	0	470	1020	
7	0	0	0	0	472	1020	
8	0	0	0	0	473	1020	
9	0	0	0	0	476	1020	
10	0	0	0	0	477	1020	
11	0	0	0	0	478	1020	
12	0	0	0	0	479	1020	
13	0	0	0	0	480	1020	
14	0	0	0	0	480	1020	
15	0	0	0	0	481	1020	
0	0	0	0	0	481	1020	
1	0	0	0	0	483	1020	
2	0	0	0	0	484	1020	
3	0	0	0	0	486	1020	
4	0	0	0	0	487	1020	
5	0	0	0	0	488	1020	
6	0	0	0	0	489	1020	
7	0	0	0	0	491	1020	
8	0	0	0	0	492	1020	
9	0	0	0	0	493	1020	
10	0	0	0	0	494	1020	
11	0	0	0	0	495	1020	
12	0	0	0	0	496	1020	
13	0	0	0	0	497	1020	
14	0	0	0	0	498	1020	
15	0	0	0	0	499	1020	
0	0	0	0	0	501	1020	
1	0	0	0	0	501	1020	
2	0	0	0	0	502	1020	
3	0	0	0	0	504	1020	
4	0	0	0	0	505	1020	
5	0	0	0	0	506	1020	
6	0	0	0	0	508	1020	
7	0	0	0	0	510	1020	
8	0	0	0	0	512	1020	
9	0	0	0	0	513	1020	
10	0	0	0	0	515	1020	
11	0	0	0	0	515	1020	
12	0	0	0	0	515	1020	
13	0	0	0	0	516	1020	
14	0	0	0	0	518	1020	
15	0	0	0	0	519	1020	
0	0	0	0	0	520	1020	
1	0	0	0	0	522	1020	
2	0	0	0	0	522	1020	
3	0	0	0	0	523	1020	
4	0	0	0	0	525	1020	
5	0	0	0	0	527	1020	
6	0	0	0	0	527	1020	
7	0	0	0	0	528	1020	
8	0	0	0	0	529	1020	
9	0	0	0	0	529	1020	
10	0	0	0	0	530	1020	
11	0	0	0	0	531	1020	
12	0	0	0	0	531	1020	
13	0	0	0	0	531	1020	
14	0	0	0	0	532	1020	
15	0	0	0	0	532	1020	
0	0	0	0	0	533	1020	
1	0	0	0	0	534	1020	
2	0	0	0	0	535	1020	
3	0	0	0	0	536	1020	
4	0	0	0	0	538	1020	
5	0	0	0	0	539	1020	
6	0	0	0	0	540	1020	
7	0	0	0	0	541	1020	
8	0	0	0	0	543	1020	
9	0	0	0	0	543	1020	
10	0	0	0	0	544	1020	
11	0	0	0	0	546	1020	
12	0	0	0	0	547	1020	
13	0	0	0	0	550	1020	
14	0	0	0	0	552	1020	
15	0	0	0	0	553	1020	
0	0	0	0	0	555	1020	
1	0	0	0	0	556	1020	
2	0	0	0	0	557	1020	
3	0	0	0	0	558	1020	
4	0	0	0	0	559	1020	
5	0	0	0	0	560	1020	
6	0	0	0	0	562	1020	
7	0	0	0	0	563	1020	
8	0	0	0	0	565	1020	
9	0	0	0	0	567	1020	
10	0	0	0	0	568	1020	
11	0	0	0	0	569	1020	
12	0	0	0	0	570	1020	
13	0	0	0	0	571	1020	
14	0	0	0	0	572	1020	
15	0	0	0	0	574	1020	
0	0	0	0	0	574	1020	
1	0	0	0	0	576	1020	
2	0	0	0	0	577	1020	
3	0	0	0	0	577	1020	
4	0	0	0	0	578	1020	
5	0	0	0	0	578	1020	
6	0	0	0	0	579	1020	
7	0	0	0	0	580	1020	
8	0	0	0	0	581	1020	
9	0	0	0	0	582	1020	
10	0	0	0	0	583	1020	
11	0	0	0	0	583	1020	
12	0	0	0	0	583	1020	
13	0	0	0	0	583	1020	
14	0	0	0	0	583	1020	
15	0	0	0	0	582	1020	
0	0	0	0	0	582	1020	
1	0	0	0	0	580	1020	
2	0	0	0	0	579	1020	
3	0	0	0	0	579	1020	
4	0	0	0	0	579	1020	
5	0	0	0	0	579	1020	
6	0	0	0	0	577	1020	
7	0	0	0	0	576	1020	
8	0	0	0	0	575	1020	
9	0	0	0	0	575	1020	
10	0	0	0	0	575	1020	
11	0	0	0	0	574	1020	
12	0	0	0	0	572	1020	
13	0	0	0	0	572	1020	
14	0	0	0	0	571	1020	
15	0	0	0	0	569	1020	
0	0	0	0	0	566	1020	
1	0	0	0	0	563	1020	
2	0	0	0	0	560	1020	
3	0	0	0	0	559	1020	
4	0	0	0	0	556	1020	
5	0	0	0	0	553	1020	
6	0	0	0	0	549	1020	
7	0	0	0	0	545	1020	
8	0	0	0	0	542	1020	
9	0	0	0	0	540	1020	
10	0	0	0	0	537	1020	
11	0	0	0	0	536	1020	
12	0	0	0	0	532	1020	
13	0	0	0	0	529	1020	
14	0	0	0	0	526	1020	
15	0	0	0	0	525	1020	
0	0	0	0	0	521	1020	
1	0	0	0	0	518	1020	
2	0	0	0	0	514	1020	
3	0	0	0	0	510	1020	
4	0	0	0	0	505	1020	
5	0	0	0	0	503	1020	
6	0	0	0	0	499	1020	
7	0	0	0	0	496	1020	
8	0	0	0	0	493	1020	
9	0	0	0	0	490	1020	
10	0	0	0	0	487	1020	
11	0	0	0	0	485	1020	
12	0	0	0	0	482	1020	
13	0	0	0	0	480	1020	
14	0	0	0	0	476	1020	
15	0	0	0	0	473	1020	
0	0	0	0	0	470	1020	
1	0	0	0	0	468	1020	
2	0	0	0	0	465	1020	
3	0	0	0	0	462	1020	
4	0	0	0	0	459	1020	
5	0	0	0	0	456	1020	
6	0	0	0	0	455	1020	
7	0	0	0	0	454	1020	
8	0	0	0	0	452	1020	
9	0	0	0	0	450	1020	
10	0	0	0	0	449	1020	
11	0	0	0	0	447	1020	
12	0	0	0	0	446	1020	
13	0	0	0	0	445	1020	
14	0	0	0	0	444	1020	
15	0	0	0	0	442	1020	
0	0	0	0	0	441	1020	
1	0	0	0	0	440	1020	
2	0	0	0	0	440	1020	
3	0	0	0	0	439	1020	
4	0	0	0	0	438	1020	
5	0	0	0	0	436	1020	
6	0	0	0	0	435	1020	
7	0	0	0	0	435	1020	
8	0	0	0	0	435	1020	
9	0	0	0	0	435	1020	
10	0	0	0	0	435	1020	
11	0	0	0	0	435	1020	
12	0	0	0	0	435	1020	
13	0	0	0	0	435	1020	
14	0	0	0	0	435	1020	
15	0	0	0	0	436	1020	
0	0	0	0	0	436	1020	
1	0	0	0	0	436	1020	
2	0	0	0	0	435	1020	
3	0	0	0	0	435	1020	
4	0	0	0	0	436	1020	
5	0	0	0	0	436	1020	
6	0	0	0	0	435	1020	
7	0	0	0	0	437	1020	
8	0	0	0	0	438	1020	
9	0	0	0	0	440	1020	
10	0	0	0	0	441	1020	
11	0	0	0	0	443	1020	
12	0	0	0	0	443	1020	
13	0	0	0	0	444	1020	
14	0	0	0	0	444	1020	
15	0	0	0	0	445	1020	
0	0	0	0	0	445	1020	
1	0	0	0	0	446	1020	
2	0	0	0	0	445	1020	
3	0	0	0	0	444	1020	
4	0	0	0	0	444	1020	
5	0	0	0	0	444	1020	
6	0	0	0	0	444	1020	
7	0	0	0	0	444	1020	
8	0	0	0	0	445	1020	
9	0	0	0	0	447	1020	
10	0	0	0	0	447	1020	
11	0	0	0	0	448	1020	
12	0	0	0	0	450	1020	
13	0	0	0	0	451	1020	
14	0	0	0	0	453	1020	
15	0	0	0	0	453	1020	
0	0	0	0	0	453	1020	
1	0	0	0	0	453	1020	
2	0	0	0	0	454	1020	
3	0	0	0	0	455	1020	
4	0	0	0	0	454	1020	
5	0	0	0	0	454	1020	
6	0	0	0	0	455	1020	
7	0	0	0	0	455	1020	
8	0	0	0	0	456	1020	
9	0	0	0	0	456	1020	
10	0	0	0	0	456	1020	
11	0	0	0	0	457	1020	
12	0	0	0	0	457	1020	
13	0	0	0	0	458	1020	
14	0	0	0	0	460	1020	
15	0	0	0	0	461	1020	
0	0	0	0	0	462	1020	
1	0	0	0	0	463	1020	
2	0	0	0	0	464	1020	
3	0	0	0	0	465	1020	
4	0	0	0	0	466	1020	
5	0	0	0	0	467	1020	
6	0	0	0	0	467	1020	
7	0	0	0	0	467	1020	
8	0	0	0	0	467	1020	
9	0	0	0	0	468	1020	
10	0	0	0	0	469	1020	
11	0	0	0	0	471	1020	
12	0	0	0	0	472	1020	
13	0	0	0	0	475	1020	
14	0	0	0	0	477	1020	
15	0	0	0	0	478	1020	
0	0	0	0	0	479	1020	
1	0	0	0	0	480	1020	
2	0	0	0	0	481	1020	
3	0	0	0	0	482	1020	
4	0	0	0	0	483	1020	
5	0	0	0	0	484	1020	
6	0	0	0	0	484	1020	
7	0	0	0	0	485	1020	
8	0	0	0	0	485	1020	
9	0	0	0	0	485	1020	
10	0	0	0	0	487	1020	
11	0	0	0	0	487	1020	
12	0	0	0	0	487	1020	
13	0	0	0	0	488	1020	
14	0	0	0	0	489	1020	
15	0	0	0	0	490	1020	
0	0	0	0	0	492	1020	
1	0	0	0	0	492	1020	
2	0	0	0	0	493	1020	
3	0	0	0	0	494	1020	
4	0	0	0	0	494	1020	
5	0	0	0	0	494	1020	
6	0	0	0	0	493	1020	
7	0	0	0	0	493	1020	
8	0	0	0	0	494	1020	
9	0	0	0	0	494	1020	
10	0	0	0	0	495	1020	
11	0	0	0	0	496	1020	
12	0	0	0	0	496	1020	
13	0	0	0	0	496	1020	
14	0	0	0	0	497	1020	
15	0	0	0	0	498	1020	
0	0	0	0	0	498	1020	
1	0	0	0	0	498	1020	
2	0	0	0	0	499	1020	
3	0	0	0	0	500	1020	
4	0	0	0	0	502	1020	
5	0	0	0	0	503	1020	
6	0	0	0	0	504	1020	
7	0	0	0	0	505	1020	
8	0	0	0	0	505	1020	
9	0	0	0	0	506	1020	
10	0	0	0	0	507	1020	
11	0	0	0	0	507	1020	
12	0	0	0	0	508	1020	
13	0	0	0	0	508	1020	
14	0	0	0	0	508	1020	
15	0	0	0	0	509	1020	
0	0	0	0	0	509	1020	
1	0	0	0	0	510	1020	
2	0	0	0	0	511	1020	
3	0	0	0	0	511	1020	
4	0	0	0	0	511	1020	
5	0	0	0	0	510	1020	
6	0	0	0	0	510	1020	
7	0	0	0	0	510	1020	
8	0	0	0	0	509	1020	
9	0	0	0	0	509	1020	
10	0	0	0	0	510	1020	
11	0	0	0	0	510	1020	
12	0	0	0	0	510	1020	
13	0	0	0	0	510	1020	
14	0	0	0	0	511	1020	
15	0	0	0	0	511	1020	
0	0	0	0	0	511	1020	
1	0	0	0	0	511	1020	
2	0	0	0	0	512	1020	
3	0	0	0	0	512	1020	
4	0	0	0	0	512	1020	
5	0	0	0	0	512	1020	
6	0	0	0	0	512	1020	
7	0	0	0	0	512	1020	
8	0	0	0	0	511	1020	
9	0	0	0	0	510	1020	
10	0	0	0	0	511	1020	
11	0	0	0	0	511	1020	
12	0	0	0	0	511	1020	
13	0	0	0	0	511	1020	
14	0	0	0	0	511	1020	
15	0	0	0	0	510	1020	
0	0	0	0	0	510	1020	
1	0	0	0	0	511	1020	
2	0	0	0	0	512	1020	
3	0	0	0	0	513	1020	
4	0	0	0	0	514	1020	
5	0	0	0	0	515	1020	
6	0	0	0	0	516	1020	
7	0	0	0	0	515	1020	
8	0	0	0	0	514	1020	
9	0	0	0	0	513	1020	
10	0	0	0	0	512	1020	
11	0	0	0	0	512	1020	
12	0	0	0	0	512	1020	
13	0	0	0	0	513	1020	
14	0	0	0	0	514	1020	
15	0	0	0	0	514	1020	
0	0	0	0	0	514	1020	
1	0	0	0	0	513	1020	
2	0	0	0	0	513	1020	
3	0	0	0	0	513	1020	
4	0	0	0	0	513	1020	
5	0	0	0	0	513	1020	
6	0	0	0	0	512	1020	
7	0	0	0	0	512	1020	
8	0	0	0	0	512	1020	
9	0	0	0	0	512	1020	
10	0	0	0	0	511	1020	
11	0	0	0	0	511	1020	
12	0	0	0	0	511	1020	
13	0	0	0	0	510	1020	
14	0	0	0	0	509	1020	
15	0	0	0	0	509	1020	
0	0	0	0	0	510	1020	
1	0	0	0	0	511	1020	
2	0	0	0	0	511	1020	
3	0	0	0	0	512	1020	
4	0	0	0	0	512	1020	
5	0	0	0	0	512	1020	
6	0	0	0	0	511	1020	
7	0	0	0	0	512	1020	
8	0	0	0	0	511	1020	
9	0	0	0	0	512	1020	
10	0	0	0	0	512	1020	
11	0	0	0	0	513	1020	
12	0	0	0	0	514	1020	
13	0	0	0	0	514	1020	
14	0	0	0	0	516	1020	
15	0	0	0	0	517	1020	
0	0	0	0	0	518	1020	
1	0	0	0	0	519	1020	
2	0	0	0	0	520	1020	
3	0	0	0	0	522	1020	
4	0	0	0	0	524	1020	
5	0	0	0	0	527	1020	
6	0	0	0	0	528	1020	
7	0	0	0	0	530	1020	
8	0	0	0	0	532	1020	
9	0	0	0	0	532	1020	
10	0	0	0	0	532	1020	
11	0	0	0	0	532	1020	
12	0	0	0	0	532	1020	
13	0	0	0	0	532	1020	
14	0	0	0	0	532	1020	
15	0	0	0	0	532	1020	
0	0	0	0	0	531	1020	
1	0	0	0	0	531	1020	
2	0	0	0	0	531	1020	
3	0	0	0	0	531	1020	
4	0	0	0	0	532	1020	
5	0	0	0	0	534	1020	
6	0	0	0	0	536	1020	
7	0	0	0	0	537	1020	
8	0	0	0	0	539	1020	
9	0	0	0	0	540	1020	
10	0	0	0	0	542	1020	
11	0	0	0	0	545	1020	
12	0	0	0	0	548	1020	
13	0	0	0	0	551	1020	
14	0	0	0	0	552	1020	
15	0	0	0	0	555	1020	
0	0	0	0	0	555	1020	
1	0	0	0	0	556	1020	
2	0	0	0	0	555	1020	
3	0	0	0	0	553	1020	
4	0	0	0	0	551	1020	
5	0	0	0	0	547	1020	
6	0	0	0	0	547	1020	
7	0	0	0	0	545	1020	
8	0	0	0	0	544	1020	
9	0	0	0	0	542	1020	
10	0	0	0	0	540	1020	
11	0	0	0	0	539	1020	
12	0	0	0	0	537	1020	
13	0	0	0	0	539	1020	
14	0	0	0	0	540	1020	
15	0	0	0	0	540	1020	
0	0	0	0	0	540	1020	
1	0	0	0	0	540	1020	
2	0	0	0	0	540	1020	
3	0	0	0	0	539	1020	
4	0	0	0	0	538	1020	
5	0	0	0	0	539	1020	
6	0	0	0	0	539	1020	
7	0	0	0	0	537	1020	
8	0	0	0	0	536	1020	
9	0	0	0	0	536	1020	
10	0	0	0	0	535	1020	
11	0	0	0	0	534	1020	
12	0	0	0	0	533	1020	
13	0	0	0	0	532	1020	
14	0	0	0	0	532	1020	
15	0	0	0	0	531	1020	
0	0	0	0	0	528	1020	
1	0	0	0	0	526	1020	
2	0	0	0	0	525	1020	
3	0	0	0	0	522	1020	
4	0	0	0	0	519	1020	
5	0	0	0	0	516	1020	
6	0	0	0	0	513	1020	
7	0	0	0	0	512	1020	
8	0	0	0	0	509	1020	
9	0	0	0	0	507	1020	
10	0	0	0	0	504	1020	
11	0	0	0	0	500	1020	
12	0	0	0	0	498	1020	
13	0	0	0	0	496	1020	
14	0	0	0	0	494	1020	
15	0	0	0	0	491	1020	
0	0	0	0	0	489	1020	
1	0	0	0	0	487	1020	
2	0	0	0	0	486	1020	
3	0	0	0	0	486	1020	
4	0	0	0	0	484	1020	
5	0	0	0	0	483	1020	
6	0	0	0	0	483	1020	
7	0	0	0	0	482	1020	
8	0	0	0	0	482	1020	
9	0	0	0	0	481	1020	
10	0	0	0	0	480	1020	
11	0	0	0	0	480	1020	
12	0	0	0	0	481	1020	
13	0	0	0	0	481	1020	
14	0	0	0	0	481	1020	
15	0	0	0	0	480	1020	
0	0	0	0	0	480	1020	
1	0	0	0	0	479	1020	
2	0	0	0	0	480	1020	
3	0	0	0	0	479	1020	
4	0	0	0	0	479	1020	
5	0	0	0	0	479	1020	
6	0	0	0	0	479	1020	
7	0	0	0	0	481	1020	
8	0	0	0	0	482	1020	
9	0	0	0	0	483	1020	
10	0	0	0	0	484	1020	
11	0	0	0	0	484	1020	
12	0	0	0	0	485	1020	
13	0	0	0	0	485	1020	
14	0	0	0	0	484	1020	
15	0	0	0	0	483	1020	
0	0	0	0	0	483	1020	
1	0	0	0	0	483	1020	
2	0	0	0	0	483	1020	
3	0	0	0	0	485	1020	
4	0	0	0	0	485	1020	
5	0	0	0	0	486	1020	
6	0	0	0	0	487	1020	
7	0	0	0	0	487	1020	
8	0	0	0	0	488	1020	
9	0	0	0	0	488	1020	
10	0	0	0	0	489	1020	
11	0	0	0	0	490	1020	
12	0	0	0	0	491	1020	
13	0	0	0	0	491	1020	
14	0	0	0	0	492	1020	
15	0	0	0	0	491	1020	
0	0	0	0	0	490	1020	
1	0	0	0	0	488	1020	
2	0	0	0	0	485	1020	
3	0	0	0	0	479	1020	
4	0	0	0	0	472	1020	
5	0	0	0	0	463	1020	
6	0	0	0	0	454	1020	
7	0	0	0	0	446	1020	
8	0	0	0	0	439	1020	
9	0	0	0	0	433	1020	
10	0	0	0	0	430	1020	
11	0	0	0	0	429	1020	
12	0	0	0	0	429	1020	
13	0	0	0	0	433	1020	
14	0	0	0	0	438	1020	
15	0	0	0	0	443	1020	
0	0	0	0	0	449	1020	
1	0	0	0	0	456	1020	
2	0	0	0	0	464	1020	
3	0	0	0	0	473	1020	
4	0	0	0	0	483	1020	
5	0	0	0	0	496	1020	
6	0	0	0	0	511	1020	
7	0	0	0	0	529	1020	
8	0	0	0	0	550	1020	
9	0	0	0	0	575	1020	
10	0	0	0	0	606	1020	
11	0	0	0	0	640	1020	
12	0	0	0	0	679	1020	
13	0	0	0	0	722	1020	
14	0	0	0	0	768	1020	
15	0	0	0	0	816	1020	
0	0	0	0	0	867	1020	
1	0	0	0	0	913	1020	
2	0	0	0	0	954	1020	
3	0	0	0	0	990	1020	
4	0	0	0	0	1016	1020	
5	0	0	0	0	1022	1020	
6	0	0	0	0	1022	1020	
7	0	0	0	0	1019	1020	
8	0	0	0	0	1007	1020	
9	0	0	0	0	987	1020	
10	0	0	0	0	961	1020	
11	0	0	0	0	929	1020	
12	0	0	0	0	897	1020	
13	0	0	0	0	860	1020	
14	0	0	0	0	817	1020	
15	0	0	0	0	772	1020	
0	0	0	0	0	726	1020	
1	0	0	0	0	679	1020	
2	0	0	0	0	635	1020	
3	0	0	0	0	594	1020	
4	0	0	0	0	559	1020	
5	0	0	0	0	526	1020	
6	0	0	0	0	495	1020	
7	0	0	0	0	469	1020	
8	0	0	0	0	447	1020	
9	0	0	0	0	432	1020	
10	0	0	0	0	423	1020	
11	0	0	0	0	415	1020	
12	0	0	0	0	409	1020	
13	0	0	0	0	406	1020	
14	0	0	0	0	407	1020	
15	0	0	0	0	410	1020	
0	0	0	0	0	415	1020	
1	0	0	0	0	417	1020	
2	0	0	0	0	419	1020	
3	0	0	0	0	421	1020	
4	0	0	0	0	423	1020	
5	0	0	0	0	424	1020	
6	0	0	0	0	423	1020	
7	0	0	0	0	424	1020	
8	0	0	0	0	426	1020	
9	0	0	0	0	427	1020	
10	0	0	0	0	428	1020	
11	0	0	0	0	429	1020	
12	0	0	0	0	431	1020	
13	0	0	0	0	432	1020	
14	0	0	0	0	433	1020	
15	0	0	0	0	435	1020	
0	0	0	0	0	436	1020	
1	0	0	0	0	436	1020	
2	0	0	0	0	436	1020	
3	0	0	0	0	437	1020	
4	0	0	0	0	438	1020	
5	0	0	0	0	440	1020	
6	0	0	0	0	441	1020	
7	0	0	0	0	442	1020	
8	0	0	0	0	443	1020	
9	0	0	0	0	443	1020	
10	0	0	0	0	444	1020	
11	0	0	0	0	445	1020	
12	0	0	0	0	445	1020	
13	0	0	0	0	446	1020	
14	0	0	0	0	447	1020	
15	0	0	0	0	448	1020	
0	0	0	0	0	448	1020	
1	0	0	0	0	449	1020	
2	0	0	0	0	450	1020	
3	0	0	0	0	451	1020	
4	0	0	0	0	451	1020	
5	0	0	0	0	452	1020	
6	0	0	0	0	453	1020	
7	0	0	0	0	452	1020	
8	0	0	0	0	452	1020	
9	0	0	0	0	453	1020	
10	0	0	0	0	455	1020	
11	0	0	0	0	456	1020	
12	0	0	0	0	458	1020	
13	0	0	0	0	459	1020	
14	0	0	0	0	461	1020	
15	0	0	0	0	462	1020	
0	0	0	0	0	464	1020	
1	0	0	0	0	465	1020	
2	0	0	0	0	467	1020	
3	0	0	0	0	468	1020	
4	0	0	0	0	470	1020	
5	0	0	0	0	471	1020	
6	0	0	0	0	472	1020	
7	0	0	0	0	474	1020	
8	0	0	0	0	474	1020	
9	0	0	0	0	474	1020	
10	0	0	0	0	475	1020	
11	0	0	0	0	476	1020	
12	0	0	0	0	478	1020	
13	0	0	0	0	480	1020	
14	0	0	0	0	481	1020	
15	0	0	0	0	482	1020	
0	0	0	0	0	483	1020	
1	0	0	0	0	483	1020	
2	0	0	0	0	484	1020	
3	0	0	0	0	485	1020	
4	0	0	0	0	486	1020	
5	0	0	0	0	487	1020	
6	0	0	0	0	488	1020	
7	0	0	0	0	490	1020	
8	0	0	0	0	491	1020	
9	0	0	0	0	492	1020	
10	0	0	0	0	492	1020	
11	0	0	0	0	493	1020	
12	0	0	0	0	495	1020	
13	0	0	0	0	496	1020	
14	0	0	0	0	498	1020	
15	0	0	0	0	499	1020	
0	0	0	0	0	501	1020	
1	0	0	0	0	502	1020	
2	0	0	0	0	503	1020	
3	0	0	0	0	504	1020	
4	0	0	0	0	505	1020	
5	0	0	0	0	507	1020	
6	0	0	0	0	509	1020	
7	0	0	0	0	510	1020	
8	0	0	0	0	510	1020	
9	0	0	0	0	512	1020	
10	0	0	0	0	512	1020	
11	0	0	0	0	512	1020	
12	0	0	0	0	513	1020	
13	0	0	0	0	515	1020	
14	0	0	0	0	516	1020	
15	0	0	0	0	516	1020	
0	0	0	0	0	517	1020	
1	0	0	0	0	519	1020	
2	0	0	0	0	521	1020	
3	0	0	0	0	523	1020	
4	0	0	0	0	524	1020	
5	0	0	0	0	525	1020	
6	0	0	0	0	525	1020	
7	0	0	0	0	526	1020	
8	0	0	0	0	528	1020	
9	0	0	0	0	529	1020	
10	0	0	0	0	531	1020	
11	0	0	0	0	532	1020	
12	0	0	0	0	532	1020	
13	0	0	0	0	534	1020	
14	0	0	0	0	535	1020	
15	0	0	0	0	536	1020	
0	0	0	0	0	536	1020	
1	0	0	0	0	537	1020	
2	0	0	0	0	539	1020	
3	0	0	0	0	540	1020	
4	0	0	0	0	542	1020	
5	0	0	0	0	542	1020	
6	0	0	0	0	543	1020	
7	0	0	0	0	543	1020	
8	0	0	0	0	544	1020	
9	0	0	0	0	545	1020	
10	0	0	0	0	546	1020	
11	0	0	0	0	547	1020	
12	0	0	0	0	549	1020	
13	0	0	0	0	551	1020	
14	0	0	0	0	554	1020	
15	0	0	0	0	555	1020	
0	0	0	0	0	557	1020	
1	0	0	0	0	558	1020	
2	0	0	0	0	559	1020	
3	0	0	0	0	561	1020	
4	0	0	0	0	562	1020	
5	0	0	0	0	562	1020	
6	0	0	0	0	562	1020	
7	0	0	0	0	563	1020	
8	0	0	0	0	566	1020	
9	0	0	0	0	567	1020	
10	0	0	0	0	568	1020	
11	0	0	0	0	569	1020	
12	0	0	0	0	571	1020	
13	0	0	0	0	572	1020	
14	0	0	0	0	573	1020	
15	0	0	0	0	574	1020	
0	0	0	0	0	575	1020	
1	0	0	0	0	577	1020	
2	0	0	0	0	579	1020	
3	0	0	0	0	579	1020	
4	0	0	0	0	580	1020	
5	0	0	0	0	581	1020	
6	0	0	0	0	581	1020	
7	0	0	0	0	582	1020	
8	0	0	0	0	582	1020	
9	0	0	0	0	583	1020	
10	0	0	0	0	583	1020	
11	0	0	0	0	582	1020	
12	0	0	0	0	582	1020	
13	0	0	0	0	581	1020	
14	0	0	0	0	581	1020	
15	0	0	0	0	580	1020	
0	0	0	0	0	579	1020	
1	0	0	0	0	579	1020	
2	0	0	0	0	578	1020	
3	0	0	0	0	578	1020	
4	0	0	0	0	577	1020	
5	0	0	0	0	577	1020	
6	0	0	0	0	576	1020	
7	0	0	0	0	575	1020	
8	0	0	0	0	574	1020	
9	0	0	0	0	573	1020	
10	0	0	0	0	571	1020	
11	0	0	0	0	569	1020	
12	0	0	0	0	568	1020	
13	0	0	0	0	567	1020	
14	0	0	0	0	565	1020	
15	0	0	0	0	563	1020	
0	0	0	0	0	561	1020	
1	0	0	0	0	558	1020	
2	0	0	0	0	556	1020	
3	0	0	0	0	553	1020	
4	0	0	0	0	551	1020	
5	0	0	0	0	551	1020	
6	0	0	0	0	547	1020	
7	0	0	0	0	543	1020	
8	0	0	0	0	540	1020	
9	0	0	0	0	536	1020	
10	0	0	0	0	533	1020	
11	0	0	0	0	528	1020	
12	0	0	0	0	525	1020	
13	0	0	0	0	522	1020	
14	0	0	0	0	519	1020	
15	0	0	0	0	516	1020	
0	0	0	0	0	514	1020	
1	0	0	0	0	511	1020	
2	0	0	0	0	508	1020	
3	0	0	0	0	505	1020	
4	0	0	0	0	502	1020	
5	0	0	0	0	499	1020	
6	0	0	0	0	495	1020	
7	0	0	0	0	492	1020	
8	0	0	0	0	488	1020	
9	0	0	0	0	486	1020	
10	0	0	0	0	482	1020	
11	0	0	0	0	479	1020	
12	0	0	0	0	476	1020	
13	0	0	0	0	472	1020	
14	0	0	0	0	469	1020	
15	0	0	0	0	465	1020	
0	0	0	0	0	464	1020	
1	0	0	0	0	462	1020	
2	0	0	0	0	461	1020	
3	0	0	0	0	460	1020	
4	0	0	0	0	457	1020	
5	0	0	0	0	455	1020	
6	0	0	0	0	454	1020	
7	0	0	0	0	451	1020	
8	0	0	0	0	448	1020	
9	0	0	0	0	446	1020	
10	0	0	0	0	444	1020	
11	0	0	0	0	443	1020	
12	0	0	0	0	440	1020	
13	0	0	0	0	439	1020	
14	0	0	0	0	437	1020	
15	0	0	0	0	436	1020	
0	0	0	0	0	435	1020	
1	0	0	0	0	435	1020	
2	0	0	0	0	435	1020	
3	0	0	0	0	435	1020	
4	0	0	0	0	434	1020	
5	0	0	0	0	435	1020	
6	0	0	0	0	434	1020	
7	0	0	0	0	434	1020	
8	0	0	0	0	433	1020	
9	0	0	0	0	433	1020	
10	0	0	0	0	432	1020	
11	0	0	0	0	431	1020	
12	0	0	0	0	431	1020	
13	0	0	0	0	431	1020	
14	0	0	0	0	432	1020	
15	0	0	0	0	432	1020	
0	0	0	0	0	433	1020	
1	0	0	0	0	433	1020	
2	0	0	0	0	435	1020	
3	0	0	0	0	436	1020	
4	0	0	0	0	437	1020	
5	0	0	0	0	437	1020	
6	0	0	0	0	437	1020	
7	0	0	0	0	436	1020	
8	0	0	0	0	437	1020	
9	0	0	0	0	438	1020	
10	0	0	0	0	438	1020	
11	0	0	0	0	438	1020	
12	0	0	0	0	437	1020	
13	0	0	0	0	437	1020	
14	0	0	0	0	437	1020	
15	0	0	0	0	438	1020	
0	0	0	0	0	439	1020	
1	0	0	0	0	439	1020	
2	0	0	0	0	438	1020	
3	0	0	0	0	439	1020	
4	0	0	0	0	441	1020	
5	0	0	0	0	442	1020	
6	0	0	0	0	443	1020	
7	0	0	0	0	444	1020	
8	0	0	0	0	446	1020	
9	0	0	0	0	447	1020	
10	0	0	0	0	448	1020	
11	0	0	0	0	449	1020	
12	0	0	0	0	450	1020	
13	0	0	0	0	451	1020	
14	0	0	0	0	451	1020	
15	0	0	0	0	450	1020	
0	0	0	0	0	451	1020	
1	0	0	0	0	451	1020	
2	0	0	0	0	451	1020	
3	0	0	0	0	451	1020	
4	0	0	0	0	452	1020	
5	0	0	0	0	453	1020	
6	0	0	0	0	454	1020	
7	0	0	0	0	454	1020	
8	0	0	0	0	455	1020	
9	0	0	0	0	455	1020	
10	0	0	0	0	455	1020	
11	0	0	0	0	455	1020	
12	0	0	0	0	456	1020	
13	0	0	0	0	457	1020	
14	0	0	0	0	458	1020	
15	0	0	0	0	458	1020	
0	0	0	0	0	458	1020	
1	0	0	0	0	459	1020	
2	0	0	0	0	460	1020	
3	0	0	0	0	461	1020	
4	0	0	0	0	462	1020	
5	0	0	0	0	464	1020	
6	0	0	0	0	465	1020	
7	0	0	0	0	466	1020	
8	0	0	0	0	467	1020	
9	0	0	0	0	468	1020	
10	0	0	0	0	471	1020	
11	0	0	0	0	472	1020	
12	0	0	0	0	473	1020	
13	0	0	0	0	473	1020	
14	0	0	0	0	473	1020	
15	0	0	0	0	473	1020	
0	0	0	0	0	473	1020	
1	0	0	0	0	473	1020	
2	0	0	0	0	474	1020	
3	0	0	0	0	475	1020	
4	0	0	0	0	476	1020	
5	0	0	0	0	478	1020	
6	0	0	0	0	480	1020	
7	0	0	0	0	481	1020	
8	0	0	0	0	482	1020	
9	0	0	0	0	483	1020	
10	0	0	0	0	483	1020	
11	0	0	0	0	485	1020	
12	0	0	0	0	485	1020	
13	0	0	0	0	486	1020	
14	0	0	0	0	486	1020	
15	0	0	0	0	487	1020	
0	0	0	0	0	487	1020	
1	0	0	0	0	487	1020	
2	0	0	0	0	487	1020	
3	0	0	0	0	488	1020	
4	0	0	0	0	489	1020	
5	0	0	0	0	490	1020	
6	0	0	0	0	492	1020	
7	0	0	0	0	493	1020	
8	0	0	0	0	494	1020	
9	0	0	0	0	496	1020	
10	0	0	0	0	496	1020	
11	0	0	0	0	496	1020	
12	0	0	0	0	498	1020	
13	0	0	0	0	499	1020	
14	0	0	0	0	499	1020	
15	0	0	0	0	499	1020	
0	0	0	0	0	499	1020	
1	0	0	0	0	498	1020	
2	0	0	0	0	498	1020	
3	0	0	0	0	498	1020	
4	0	0	0	0	499	1020	
5	0	0	0	0	500	1020	
6	0	0	0	0	501	1020	
7	0	0	0	0	502	1020	
8	0	0	0	0	503	1020	
9	0	0	0	0	503	1020	
10	0	0	0	0	503	1020	
11	0	0	0	0	502	1020	
12	0	0	0	0	502	1020	
13	0	0	0	0	502	1020	
14	0	0	0	0	502	1020	
15	0	0	0	0	502	1020	
0	0	0	0	0	502	1020	
1	0	0	0	0	502	1020	
2	0	0	0	0	501	1020	
3	0	0	0	0	502	1020	
4	0	0	0	0	504	1020	
5	0	0	0	0	504	1020	
6	0	0	0	0	505	1020	
7	0	0	0	0	504	1020	
8	0	0	0	0	504	1020	
9	0	0	0	0	504	1020	
10	0	0	0	0	505	1020	
11	0	0	0	0	505	1020	
12	0	0	0	0	505	1020	
13	0	0	0	0	505	1020	
14	0	0	0	0	506	1020	
15	0	0	0	0	505	1020	
0	0	0	0	0	506	1020	
1	0	0	0	0	505	1020	
2	0	0	0	0	505	1020	
3	0	0	0	0	505	1020	
4	0	0	0	0	505	1020	
5	0	0	0	0	506	1020	
6	0	0	0	0	507	1020	
7	0	0	0	0	507	1020	
8	0	0	0	0	507	1020	
9	0	0	0	0	508	1020	
10	0	0	0	0	508	1020	
11	0	0	0	0	509	1020	
12	0	0	0	0	509	1020	
13	0	0	0	0	509	1020	
14	0	0	0	0	508	1020	
15	0	0	0	0	508	1020	
0	0	0	0	0	508	1020	
1	0	0	0	0	508	1020	
2	0	0	0	0	508	1020	
3	0	0	0	0	508	1020	
4	0	0	0	0	508	1020	
5	0	0	0	0	508	1020	
6	0	0	0	0	508	1020	
7	0	0	0	0	509	1020	
8	0	0	0	0	509	1020	
9	0	0	0	0	509	1020	
10	0	0	0	0	509	1020	
11	0	0	0	0	507	1020	
12	0	0	0	0	506	1020	
13	0	0	0	0	505	1020	
14	0	0	0	0	506	1020	
15	0	0	0	0	506	1020	
0	0	0	0	0	506	1020	
1	0	0	0	0	506	1020	
2	0	0	0	0	507	1020	
3	0	0	0	0	507	1020	
4	0	0	0	0	507	1020	
5	0	0	0	0	505	1020	
6	0	0	0	0	506	1020	
7	0	0	0	0	506	1020	
8	0	0	0	0	507	1020	
9	0	0	0	0	507	1020	
10	0	0	0	0	507	1020	
11	0	0	0	0	508	1020	
12	0	0	0	0	508	1020	
13	0	0	0	0	508	1020	
14	0	0	0	0	508	1020	
15	0	0	0	0	508	1020	
0	0	0	0	0	508	1020	
1	0	0	0	0	508	1020	
2	0	0	0	0	508	1020	
3	0	0	0	0	508	1020	
4	0	0	0	0	508	1020	
5	0	0	0	0	507	1020	
6	0	0	0	0	507	1020	
7	0	0	0	0	507	1020	
8	0	0	0	0	508	1020	
9	0	0	0	0	508	1020	
10	0	0	0	0	508	1020	
11	0	0	0	0	507	1020	
12	0	0	0	0	506	1020	
13	0	0	0	0	506	1020	
14	0	0	0	0	506	1020	
15	0	0	0	0	508	1020	
0	0	0	0	0	508	1020	
1	0	0	0	0	509	1020	
2	0	0	0	0	508	1020	
3	0	0	0	0	507	1020	
4	0	0	0	0	508	1020	
5	0	0	0	0	508	1020	
6	0	0	0	0	508	1020	
7	0	0	0	0	507	1020	
8	0	0	0	0	507	1020	
9	0	0	0	0	507	1020	
10	0	0	0	0	508	1020	
11	0	0	0	0	508	1020	
12	0	0	0	0	509	1020	
13	0	0	0	0	509	1020	
14	0	0	0	0	510	1020	
15	0	0	0	0	510	1020	
0	0	0	0	0	509	1020	
1	0	0	0	0	510	1020	
2	0	0	0	0	510	1020	
3	0	0	0	0	510	1020	
4	0	0	0	0	510	1020	
5	0	0	0	0	509	1020	
6	0	0	0	0	509	1020	
7	0	0	0	0	509	1020	
8	0	0	0	0	508	1020	
9	0	0	0	0	508	1020	
10	0	0	0	0	508	1020	
11	0	0	0	0	510	1020	
12	0	0	0	0	512	1020	
13	0	0	0	0	513	1020	
14	0	0	0	0	514	1020	
15	0	0	0	0	517	1020	
0	0	0	0	0	519	1020	
1	0	0	0	0	520	1020	
2	0	0	0	0	522	1020	
3	0	0	0	0	524	1020	
4	0	0	0	0	527	1020	
5	0	0	0	0	529	1020	
6	0	0	0	0	531	1020	
7	0	0	0	0	532	1020	
8	0	0	0	0	532	1020	
9	0	0	0	0	531	1020	
10	0	0	0	0	531	1020	
11	0	0	0	0	531	1020	
12	0	0	0	0	531	1020	
13	0	0	0	0	531	1020	
14	0	0	0	0	531	1020	
15	0	0	0	0	531	1020	
0	0	0	0	0	531	1020	
1	0	0	0	0	532	1020	
2	0	0	0	0	532	1020	
3	0	0	0	0	533	1020	
4	0	0	0	0	535	1020	
5	0	0	0	0	536	1020	
6	0	0	0	0	537	1020	
7	0	0	0	0	540	1020	
8	0	0	0	0	543	1020	
9	0	0	0	0	546	1020	
10	0	0	0	0	549	1020	
11	0	0	0	0	551	1020	
12	0	0	0	0	553	1020	
13	0	0	0	0	555	1020	
14	0	0	0	0	556	1020	
15	0	0	0	0	555	1020	
0	0	0	0	0	553	1020	
1	0	0	0	0	551	1020	
2	0	0	0	0	549	1020	
3	0	0	0	0	547	1020	
4	0	0	0	0	545	1020	
5	0	0	0	0	544	1020	
6	0	0	0	0	544	1020	
7	0	0	0	0	543	1020	
8	0	0	0	0	542	1020	
9	0	0	0	0	541	1020	
10	0	0	0	0	540	1020	
11	0	0	0	0	540	1020	
12	0	0	0	0	540	1020	
13	0	0	0	0	541	1020	
14	0	0	0	0	541	1020	
15	0	0	0	0	541	1020	
0	0	0	0	0	539	1020	
1	0	0	0	0	538	1020	
2	0	0	0	0	538	1020	
3	0	0	0	0	538	1020	
4	0	0	0	0	537	1020	
5	0	0	0	0	536	1020	
6	0	0	0	0	534	1020	
7	0	0	0	0	533	1020	
8	0	0	0	0	532	1020	
9	0	0	0	0	531	1020	
10	0	0	0	0	531	1020	
11	0	0	0	0	530	1020	
12	0	0	0	0	529	1020	
13	0	0	0	0	528	1020	
14	0	0	0	0	527	1020	
15	0	0	0	0	525	1020	
0	0	0	0	0	523	1020	
1	0	0	0	0	520	1020	
2	0	0	0	0	517	1020	
3	0	0	0	0	513	1020	
4	0	0	0	0	510	1020	
5	0	0	0	0	507	1020	
6	0	0	0	0	504	1020	
7	0	0	0	0	502	1020	
8	0	0	0	0	499	1020	
9	0	0	0	0	496	1020	
10	0	0	0	0	493	1020	
11	0	0	0	0	491	1020	
12	0	0	0	0	490	1020	
13	0	0	0	0	488	1020	
14	0	0	0	0	486	1020	
15	0	0	0	0	486	1020	
0	0	0	0	0	485	1020	
1	0	0	0	0	484	1020	
2	0	0	0	0	485	1020	
3	0	0	0	0	484	1020	
4	0	0	0	0	483	1020	
5	0	0	0	0	483	1020	
6	0	0	0	0	483	1020	
7	0	0	0	0	482	1020	
8	0	0	0	0	480	1020	
9	0	0	0	0	480	1020	
10	0	0	0	0	479	1020	
11	0	0	0	0	479	1020	
12	0	0	0	0	479	1020	
13	0	0	0	0	479	1020	
14	0	0	0	0	479	1020	
15	0	0	0	0	480	1020	
0	0	0	0	0	480	1020	
1	0	0	0	0	482	1020	
2	0	0	0	0	483	1020	
3	0	0	0	0	482	1020	
4	0	0	0	0	482	1020	
5	0	0	0	0	482	1020	
6	0	0	0	0	482	1020	
7	0	0	0	0	481	1020	
8	0	0	0	0	481	1020	
9	0	0	0	0	481	1020	
10	0	0	0	0	481	1020	
11	0	0	0	0	482	1020	
12	0	0	0	0	483	1020	
13	0	0	0	0	483	1020	
14	0	0	0	0	483	1020	
15	0	0	0	0	484	1020	
0	0	0	0	0	485	1020	
1	0	0	0	0	486	1020	
2	0	0	0	0	487	1020	
3	0	0	0	0	487	1020	
4	0	0	0	0	488	1020	
5	0	0	0	0	488	1020	
6	0	0	0	0	487	1020	
7	0	0	0	0	487	1020	
8	0	0	0	0	488	1020	
9	0	0	0	0	489	1020	
10	0	0	0	0	488	1020	
11	0	0	0	0	488	1020	
12	0	0	0	0	488	1020	
13	0	0	0	0	487	1020	
14	0	0	0	0	486	1020	
15	0	0	0	0	483	1020	
0	0	0	0	0	479	1020	
1	0	0	0	0	472	1020	
2	0	0	0	0	463	1020	
3	0	0	0	0	454	1020	
4	0	0	0	0	445	1020	
5	0	0	0	0	438	1020	
6	0	0	0	0	432	1020	
7	0	0	0	0	428	1020	
8	0	0	0	0	427	1020	
9	0	0	0	0	428	1020	
10	0	0	0	0	431	1020	
11	0	0	0	0	436	1020	
12	0	0	0	0	441	1020	
13	0	0	0	0	448	1020	
14	0	0	0	0	455	1020	
15	0	0	0	0	464	1020	
0	0	0	0	0	473	1020	
1	0	0	0	0	484	1020	
2	0	0	0	0	497	1020	
3	0	0	0	0	513	1020	
4	0	0	0	0	530	1020	
5	0	0	0	0	552	1020	
6	0	0	0	0	578	1020	
7	0	0	0	0	608	1020	
8	0	0	0	0	644	1020	
9	0	0	0	0	682	1020	
10	0	0	0	0	723	1020	
11	0	0	0	0	770	1020	
12	0	0	0	0	818	1020	
13	0	0	0	0	867	1020	
14	0	0	0	0	912	1020	
15	0	0	0	0	952	1020	
0	0	0	0	0	986	1020	
1	0	0	0	0	1010	1020	
2	0	0	0	0	1016	1020	
3	0	0	0	0	1013	1020	
4	0	0	0	0	1006	1020	
5	0	0	0	0	993	1020	
6	0	0	0	0	972	1020	
7	0	0	0	0	945	1020	
8	0	0	0	0	914	1020	
9	0	0	0	0	882	1020	
10	0	0	0	0	844	1020	
11	0	0	0	0	800	1020	
12	0	0	0	0	754	1020	
13	0	0	0	0	708	1020	
14	0	0	0	0	662	1020	
15	0	0	0	0	620	1020	
0	0	0	0	0	580	1020	
1	0	0	0	0	546	1020	
2	0	0	0	0	512	1020	
3	0	0	0	0	483	1020	
4	0	0	0	0	460	1020	
5	0	0	0	0	439	1020	
6	0	0	0	0	425	1020	
7	0	0	0	0	414	1020	
8	0	0	0	0	406	1020	
9	0	0	0	0	401	1020	
10	0	0	0	0	399	1020	
11	0	0	0	0	400	1020	
12	0	0	0	0	404	1020	
13	0	0	0	0	409	1020	
14	0	0	0	0	413	1020	
15	0	0	0	0	416	1020	
0	0	0	0	0	418	1020	
1	0	0	0	0	421	1020	
2	0	0	0	0	423	1020	
3	0	0	0	0	423	1020	
4	0	0	0	0	425	1020	
5	0	0	0	0	427	1020	
6	0	0	0	0	426	1020	
7	0	0	0	0	428	1020	
8	0	0	0	0	429	1020	
9	0	0	0	0	430	1020	
10	0	0	0	0	433	1020	
11	0	0	0	0	434	1020	
12	0	0	0	0	436	1020	
13	0	0	0	0	437	1020	
14	0	0	0	0	437	1020	
15	0	0	0	0	438	1020	
0	0	0	0	0	438	1020	
1	0	0	0	0	437	1020	
2	0	0	0	0	438	1020	
3	0	0	0	0	438	1020	
4	0	0	0	0	438	1020	
5	0	0	0	0	438	1020	
6	0	0	0	0	438	1020	
7	0	0	0	0	439	1020	
8	0	0	0	0	440	1020	
9	0	0	0	0	442	1020	
10	0	0	0	0	442	1020	
11	0	0	0	0	443	1020	
12	0	0	0	0	444	1020	
13	0	0	0	0	444	1020	
14	0	0	0	0	446	1020	
15	0	0	0	0	447	1020	
0	0	0	0	0	448	1020	
1	0	0	0	0	449	1020	
2	0	0	0	0	448	1020	
3	0	0	0	0	449	1020	
4	0	0	0	0	449	1020	
5	0	0	0	0	451	1020	
6	0	0	0	0	453	1020	
7	0	0	0	0	455	1020	
8	0	0	0	0	456	1020	
9	0	0	0	0	457	1020	
10	0	0	0	0	457	1020	
11	0	0	0	0	458	1020	
12	0	0	0	0	460	1020	
13	0	0	0	0	461	1020	
14	0	0	0	0	462	1020	
15	0	0	0	0	463	1020	
0	0	0	0	0	463	1020	
1	0	0	0	0	464	1020	
2	0	0	0	0	464	1020	
3	0	0	0	0	465	1020	
4	0	0	0	0	467	1020	
5	0	0	0	0	467	1020	
6	0	0	0	0	467	1020	
7	0	0	0	0	470	1020	
8	0	0	0	0	472	1020	
9	0	0	0	0	473	1020	
10	0	0	0	0	475	1020	
11	0	0	0	0	476	1020	
12	0	0	0	0	477	1020	
13	0	0	0	0	478	1020	
14	0	0	0	0	480	1020	
15	0	0	0	0	483	1020	
0	0	0	0	0	483	1020	
1	0	0	0	0	484	1020	
2	0	0	0	0	485	1020	
3	0	0	0	0	485	1020	
4	0	0	0	0	486	1020	
5	0	0	0	0	487	1020	
6	0	0	0	0	489	1020	
7	0	0	0	0	490	1020	
8	0	0	0	0	491	1020	
9	0	0	0	0	491	1020	
10	0	0	0	0	492	1020	
11	0	0	0	0	494	1020	
12	0	0	0	0	495	1020	
13	0	0	0	0	495	1020	
14	0	0	0	0	496	1020	
15	0	0	0	0	496	1020	
0	0	0	0	0	497	1020	
1	0	0	0	0	497	1020	
2	0	0	0	0	498	1020	
3	0	0	0	0	499	1020	
4	0	0	0	0	501	1020	
5	0	0	0	0	503	1020	
6	0	0	0	0	504	1020	
7	0	0	0	0	505	1020	
8	0	0	0	0	506	1020	
9	0	0	0	0	508	1020	
10	0	0	0	0	510	1020	
11	0	0	0	0	512	1020	
12	0	0	0	0	512	1020	
13	0	0	0	0	513	1020	
14	0	0	0	0	513	1020	
15	0	0	0	0	513	1020	
0	0	0	0	0	514	1020	
1	0	0	0	0	515	1020	
2	0	0	0	0	515	1020	
3	0	0	0	0	515	1020	
4	0	0	0	0	517	1020	
5	0	0	0	0	519	1020	
6	0	0	0	0	521	1020	
7	0	0	0	0	522	1020	
8	0	0	0	0	523	1020	
9	0	0	0	0	525	1020	
10	0	0	0	0	526	1020	
11	0	0	0	0	527	1020	
12	0	0	0	0	528	1020	
13	0	0	0	0	529	1020	
14	0	0	0	0	530	1020	
15	0	0	0	0	530	1020	
0	0	0	0	0	531	1020	
1	0	0	0	0	531	1020	
2	0	0	0	0	532	1020	
3	0	0	0	0	533	1020	
4	0	0	0	0	534	1020	
5	0	0	0	0	536	1020	
6	0	0	0	0	536	1020	
7	0	0	0	0	537	1020	
8	0	0	0	0	538	1020	
9	0	0	0	0	541	1020	
10	0	0	0	0	543	1020	
11	0	0	0	0	545	1020	
12	0	0	0	0	547	1020	
13	0	0	0	0	549	1020	
14	0	0	0	0	550	1020	
15	0	0	0	0	551	1020	
0	0	0	0	0	553	1020	
1	0	0	0	0	555	1020	
2	0	0	0	0	556	1020	
3	0	0	0	0	557	1020	
4	0	0	0	0	557	1020	
5	0	0	0	0	558	1020	
6	0	0	0	0	559	1020	
7	0	0	0	0	562	1020	
8	0	0	0	0	564	1020	
9	0	0	0	0	566	1020	
10	0	0	0	0	567	1020	
11	0	0	0	0	567	1020	
12	0	0	0	0	569	1020	
13	0	0	0	0	571	1020	
14	0	0	0	0	573	1020	
15	0	0	0	0	574	1020	
0	0	0	0	0	574	1020	
1	0	0	0	0	573	1020	
2	0	0	0	0	574	1020	
3	0	0	0	0	575	1020	
4	0	0	0	0	575	1020	
5	0	0	0	0	576	1020	
6	0	0	0	0	576	1020	
7	0	0	0	0	575	1020	
8	0	0	0	0	575	1020	
9	0	0	0	0	575	1020	
10	0	0	0	0	575	1020	
11	0	0	0	0	575	1020	
12	0	0	0	0	574	1020	
13	0	0	0	0	574	1020	
14	0	0	0	0	573	1020	
15	0	0	0	0	572	1020	
0	0	0	0	0	571	1020	
1	0	0	0	0	571	1020	
2	0	0	0	0	571	1020	
3	0	0	0	0	568	1020	
4	0	0	0	0	567	1020	
5	0	0	0	0	565	1020	
6	0	0	0	0	564	1020	
7	0	0	0	0	563	1020	
8	0	0	0	0	560	1020	
9	0	0	0	0	559	1020	
10	0	0	0	0	558	1020	
11	0	0	0	0	556	1020	
12	0	0	0	0	556	1020	
13	0	0	0	0	554	1020	
14	0	0	0	0	552	1020	
15	0	0	0	0	551	1020	
0	0	0	0	0	549	1020	
1	0	0	0	0	547	1020	
2	0	0	0	0	546	1020	
3	0	0	0	0	543	1020	
4	0	0	0	0	541	1020	
5	0	0	0	0	539	1020	
6	0	0	0	0	536	1020	
7	0	0	0	0	533	1020	
8	0	0	0	0	530	1020	
9	0	0	0	0	527	1020	
10	0	0	0	0	523	1020	
11	0	0	0	0	520	1020	
12	0	0	0	0	518	1020	
13	0	0	0	0	516	1020	
14	0	0	0	0	512	1020	
15	0	0	0	0	508	1020	
0	0	0	0	0	504	1020	
1	0	0	0	0	500	1020	
2	0	0	0	0	495	1020	
3	0	0	0	0	492	1020	
4	0	0	0	0	489	1020	
5	0	0	0	0	486	1020	
6	0	0	0	0	483	1020	
7	0	0	0	0	479	1020	
8	0	0	0	0	476	1020	
9	0	0	0	0	474	1020	
10	0	0	0	0	472	1020	
11	0	0	0	0	469	1020	
12	0	0	0	0	467	1020	
13	0	0	0	0	464	1020	
14	0	0	0	0	462	1020	
15	0	0	0	0	460	1020	
0	0	0	0	0	458	1020	
1	0	0	0	0	455	1020	
2	0	0	0	0	453	1020	
3	0	0	0	0	451	1020	
4	0	0	0	0	448	1020	
5	0	0	0	0	446	1020	
6	0	0	0	0	444	1020	
7	0	0	0	0	444	1020	
8	0	0	0	0	444	1020	
9	0	0	0	0	442	1020	
10	0	0	0	0	440	1020	
11	0	0	0	0	439	1020	
12	0	0	0	0	439	1020	
13	0	0	0	0	438	1020	
14	0	0	0	0	438	1020	
15	0	0	0	0	437	1020	
0	0	0	0	0	435	1020	
1	0	0	0	0	434	1020	
2	0	0	0	0	434	1020	
3	0	0	0	0	433	1020	
4	0	0	0	0	433	1020	
5	0	0	0	0	433	1020	
6	0	0	0	0	432	1020	
7	0	0	0	0	431	1020	
8	0	0	0	0	432	1020	
9	0	0	0	0	432	1020	
10	0	0	0	0	432	1020	
11	0	0	0	0	432	1020	
12	0	0	0	0	432	1020	
13	0	0	0	0	433	1020	
14	0	0	0	0	432	1020	
15	0	0	0	0	433	1020	
0	0	0	0	0	435	1020	
1	0	0	0	0	436	1020	
2	0	0	0	0	438	1020	
3	0	0	0	0	438	1020	
4	0	0	0	0	438	1020	
5	0	0	0	0	438	1020	
6	0	0	0	0	439	1020	
7	0	0	0	0	438	1020	
8	0	0	0	0	439	1020	
9	0	0	0	0	439	1020	
10	0	0	0	0	439	1020	
11	0	0	0	0	440	1020	
12	0	0	0	0	440	1020	
13	0	0	0	0	440	1020	
14	0	0	0	0	440	1020	
15	0	0	0	0	441	1020	
0	0	0	0	0	441	1020	
1	0	0	0	0	442	1020	
2	0	0	0	0	443	1020	
3	0	0	0	0	443	1020	
4	0	0	0	0	444	1020	
5	0	0	0	0	443	1020	
6	0	0	0	0	441	1020	
7	0	0	0	0	440	1020	
8	0	0	0	0	441	1020	
9	0	0	0	0	441	1020	
10	0	0	0	0	443	1020	
11	0	0	0	0	443	1020	
12	0	0	0	0	443	1020	
13	0	0	0	0	443	1020	
14	0	0	0	0	444	1020	
15	0	0	0	0	447	1020	
0	0	0	0	0	448	1020	
1	0	0	0	0	449	1020	
2	0	0	0	0	450	1020	
3	0	0	0	0	451	1020	
4	0	0	0	0	451	1020	
5	0	0	0	0	452	1020	
6	0	0	0	0	453	1020	
7	0	0	0	0	454	1020	
8	0	0	0	0	454	1020	
9	0	0	0	0	453	1020	
10	0	0	0	0	454	1020	
11	0	0	0	0	454	1020	
12	0	0	0	0	455	1020	
13	0	0	0	0	455	1020	
14	0	0	0	0	457	1020	
15	0	0	0	0	458	1020	
0	0	0	0	0	459	1020	
1	0	0	0	0	460	1020	
2	0	0	0	0	462	1020	
3	0	0	0	0	464	1020	
4	0	0	0	0	465	1020	
5	0	0	0	0	466	1020	
6	0	0	0	0	467	1020	
7	0	0	0	0	468	1020	
8	0	0	0	0	469	1020	
9	0	0	0	0	470	1020	
10	0	0	0	0	469	1020	
11	0	0	0	0	470	1020	
12	0	0	0	0	472	1020	
13	0	0	0	0	472	1020	
14	0	0	0	0	472	1020	
15	0	0	0	0	473	1020	
0	0	0	0	0	473	1020	
1	0	0	0	0	473	1020	
2	0	0	0	0	473	1020	
3	0	0	0	0	475	1020	
4	0	0	0	0	475	1020	
5	0	0	0	0	475	1020	
6	0	0	0	0	476	1020	
7	0	0	0	0	476	1020	
8	0	0	0	0	476	1020	
9	0	0	0	0	478	1020	
10	0	0	0	0	478	1020	
11	0	0	0	0	478	1020	
12	0	0	0	0	478	1020	
13	0	0	0	0	478	1020	
14	0	0	0	0	480	1020	
15	0	0	0	0	480	1020	
0	0	0	0	0	482	1020	
1	0	0	0	0	483	1020	
2	0	0	0	0	483	1020	
3	0	0	0	0	484	1020	
4	0	0	0	0	485	1020	
5	0	0	0	0	486	1020	
6	0	0	0	0	487	1020	
7	0	0	0	0	487	1020	
8	0	0	0	0	487	1020	
9	0	0	0	0	486	1020	
10	0	0	0	0	487	1020	
11	0	0	0	0	487	1020	
12	0	0	0	0	488	1020	
13	0	0	0	0	488	1020	
14	0	0	0	0	489	1020	
15	0	0	0	0	489	1020	
0	0	0	0	0	491	1020	
1	0	0	0	0	491	1020	
2	0	0	0	0	492	1020	
3	0	0	0	0	492	1020	
4	0	0	0	0	494	1020	
5	0	0	0	0	493	1020	
6	0	0	0	0	494	1020	
7	0	0	0	0	495	1020	
8	0	0	0	0	496	1020	
9	0	0	0	0	496	1020	
10	0	0	0	0	496	1020	
11	0	0	0	0	496	1020	
12	0	0	0	0	496	1020	
13	0	0	0	0	496	1020	
14	0	0	0	0	497	1020	
15	0	0	0	0	497	1020	
0	0	0	0	0	497	1020	
1	0	0	0	0	498	1020	
2	0	0	0	0	499	1020	
3	0	0	0	0	500	1020	
4	0	0	0	0	499	1020	
5	0	0	0	0	499	1020	
6	0	0	0	0	499	1020	
7	0	0	0	0	499	1020	
8	0	0	0	0	499	1020	
9	0	0	0	0	499	1020	
10	0	0	0	0	500	1020	
11	0	0	0	0	500	1020	
12	0	0	0	0	499	1020	
13	0	0	0	0	499	1020	
14	0	0	0	0	499	1020	
15	0	0	0	0	499	1020	
0	0	0	0	0	499	1020	
1	0	0	0	0	499	1020	
2	0	0	0	0	499	1020	
3	0	0	0	0	497	1020	
4	0	0	0	0	498	1020	
5	0	0	0	0	499	1020	
6	0	0	0	0	499	1020	
7	0	0	0	0	499	1020	
8	0	0	0	0	499	1020	
9	0	0	0	0	499	1020	
10	0	0	0	0	500	1020	
11	0	0	0	0	500	1020	
12	0	0	0	0	500	1020	
13	0	0	0	0	500	1020	
14	0	0	0	0	500	1020	
15	0	0	0	0	501	1020	
0	0	0	0	0	501	1020	
1	0	0	0	0	501	1020	
2	0	0	0	0	500	1020	
3	0	0	0	0	501	1020	
4	0	0	0	0	501	1020	
5	0	0	0	0	501	1020	
6	0	0	0	0	502	1020	
7	0	0	0	0	503	1020	
8	0	0	0	0	503	1020	
9	0	0	0	0	503	1020	
10	0	0	0	0	504	1020	
11	0	0	0	0	504	1020	
12	0	0	0	0	503	1020	
13	0	0	0	0	502	1020	
14	0	0	0	0	501	1020	
15	0	0	0	0	500	1020	
0	0	0	0	0	500	1020	
1	0	0	0	0	500	1020	
2	0	0	0	0	500	1020	
3	0	0	0	0	500	1020	
4	0	0	0	0	500	1020	
5	0	0	0	0	500	1020	
6	0	0	0	0	500	1020	
7	0	0	0	0	502	1020	
8	0	0	0	0	503	1020	
9	0	0	0	0	503	1020	
10	0	0	0	0	504	1020	
11	0	0	0	0	503	1020	
12	0	0	0	0	502	1020	
13	0	0	0	0	502	1020	
14	0	0	0	0	503	1020	
15	0	0	0	0	504	1020	
0	0	0	0	0	503	1020	
1	0	0	0	0	502	1020	
2	0	0	0	0	502	1020	
3	0	0	0	0	503	1020	
4	0	0	0	0	504	1020	
5	0	0	0	0	504	1020	
6	0	0	0	0	504	1020	
7	0	0	0	0	504	1020	
8	0	0	0	0	504	1020	
9	0	0	0	0	504	1020	
10	0	0	0	0	502	1020	
11	0	0	0	0	500	1020	
12	0	0	0	0	499	1020	
13	0	0	0	0	498	1020	
14	0	0	0	0	499	1020	
15	0	0	0	0	499	1020	
0	0	0	0	0	498	1020	
1	0	0	0	0	498	1020	
2	0	0	0	0	497	1020	
3	0	0	0	0	498	1020	
4	0	0	0	0	498	1020	
5	0	0	0	0	499	1020	
6	0	0	0	0	499	1020	
7	0	0	0	0	499	1020	
8	0	0	0	0	499	1020	
9	0	0	0	0	499	1020	
10	0	0	0	0	499	1020	
11	0	0	0	0	500	1020	
12	0	0	0	0	499	1020	
13	0	0	0	0	498	1020	
14	0	0	0	0	498	1020	
15	0	0	0	0	498	1020	
0	0	0	0	0	498	1020	
1	0	0	0	0	499	1020	
2	0	0	0	0	500	1020	
3	0	0	0	0	500	1020	
4	0	0	0	0	499	1020	
5	0	0	0	0	499	1020	
6	0	0	0	0	498	1020	
7	0	0	0	0	499	1020	
8	0	0	0	0	500	1020	
9	0	0	0	0	499	1020	
10	0	0	0	0	499	1020	
11	0	0	0	0	499	1020	
12	0	0	0	0	499	1020	
13	0	0	0	0	499	1020	
14	0	0	0	0	499	1020	
15	0	0	0	0	499	1020	
0	0	0	0	0	498	1020	
1	0	0	0	0	498	1020	
2	0	0	0	0	499	1020	
3	0	0	0	0	500	1020	
4	0	0	0	0	502	1020	
5	0	0	0	0	503	1020	
6	0	0	0	0	505	1020	
7	0	0	0	0	506	1020	
8	0	0	0	0	508	1020	
9	0	0	0	0	508	1020	
10	0	0	0	0	510	1020	
11	0	0	0	0	511	1020	
12	0	0	0	0	512	1020	
13	0	0	0	0	513	1020	
14	0	0	0	0	515	1020	
15	0	0	0	0	519	1020	
0	0	0	0	0	520	1020	
1	0	0	0	0	521	1020	
2	0	0	0	0	524	1020	
3	0	0	0	0	524	1020	
4	0	0	0	0	526	1020	
5	0	0	0	0	528	1020	
6	0	0	0	0	527	1020	
7	0	0	0	0	526	1020	
8	0	0	0	0	526	1020	
9	0	0	0	0	525	1020	
10	0	0	0	0	525	1020	
11	0	0	0	0	524	1020	
12	0	0	0	0	524	1020	
13	0	0	0	0	524	1020	
14	0	0	0	0	523	1020	
15	0	0	0	0	524	1020	
0	0	0	0	0	526	1020	
1	0	0	0	0	528	1020	
2	0	0	0	0	531	1020	
3	0	0	0	0	534	1020	
4	0	0	0	0	536	1020	
5	0	0	0	0	539	1020	
6	0	0	0	0	542	1020	
7	0	0	0	0	545	1020	
8	0	0	0	0	546	1020	
9	0	0	0	0	547	1020	
10	0	0	0	0	548	1020	
11	0	0	0	0	547	1020	
12	0	0	0	0	545	1020	
13	0	0	0	0	542	1020	
14	0	0	0	0	540	1020	
15	0	0	0	0	539	1020	
0	0	0	0	0	538	1020	
1	0	0	0	0	536	1020	
2	0	0	0	0	534	1020	
3	0	0	0	0	534	1020	
4	0	0	0	0	534	1020	
5	0	0	0	0	534	1020	
6	0	0	0	0	534	1020	
7	0	0	0	0	532	1020	
8	0	0	0	0	534	1020	
9	0	0	0	0	534	1020	
10	0	0	0	0	534	1020	
11	0	0	0	0	535	1020	
12	0	0	0	0	534	1020	
13	0	0	0	0	533	1020	
14	0	0	0	0	531	1020	
15	0	0	0	0	530	1020	
0	0	0	0	0	529	1020	
1	0	0	0	0	527	1020	
2	0	0	0	0	527	1020	
3	0	0	0	0	526	1020	
4	0	0	0	0	526	1020	
5	0	0	0	0	525	1020	
6	0	0	0	0	526	1020	
7	0	0	0	0	527	1020	
8	0	0	0	0	525	1020	
9	0	0	0	0	523	1020	
10	0	0	0	0	522	1020	
11	0	0	0	0	521	1020	
12	0	0	0	0	519	1020	
13	0	0	0	0	516	1020	
14	0	0	0	0	513	1020	
15	0	0	0	0	511	1020	
0	0	0	0	0	507	1020	
1	0	0	0	0	504	1020	
2	0	0	0	0	501	1020	
3	0	0	0	0	497	1020	
4	0	0	0	0	494	1020	
5	0	0	0	0	490	1020	
6	0	0	0	0	488	1020	
7	0	0	0	0	486	1020	
8	0	0	0	0	484	1020	
9	0	0	0	0	483	1020	
10	0	0	0	0	481	1020	
11	0	0	0	0	481	1020	
12	0	0	0	0	480	1020	
13	0	0	0	0	479	1020	
14	0	0	0	0	478	1020	
15	0	0	0	0	478	1020	
0	0	0	0	0	476	1020	
1	0	0	0	0	476	1020	
2	0	0	0	0	476	1020	
3	0	0	0	0	476	1020	
4	0	0	0	0	475	1020	
5	0	0	0	0	475	1020	
6	0	0	0	0	474	1020	
7	0	0	0	0	474	1020	
8	0	0	0	0	474	1020	
9	0	0	0	0	474	1020	
10	0	0	0	0	475	1020	
11	0	0	0	0	474	1020	
12	0	0	0	0	475	1020	
13	0	0	0	0	476	1020	
14	0	0	0	0	476	1020	
15	0	0	0	0	476	1020	
0	0	0	0	0	477	1020	
1	0	0	0	0	477	1020	
2	0	0	0	0	477	1020	
3	0	0	0	0	477	1020	
4	0	0	0	0	478	1020	
5	0	0	0	0	478	1020	
6	0	0	0	0	478	1020	
7	0	0	0	0	479	1020	
8	0	0	0	0	480	1020	
9	0	0	0	0	480	1020	
10	0	0	0	0	480	1020	
11	0	0	0	0	481	1020	
12	0	0	0	0	481	1020	
13	0	0	0	0	481	1020	
14	0	0	0	0	483	1020	
15	0	0	0	0	483	1020	
0	0	0	0	0	483	1020	
1	0	0	0	0	483	1020	
2	0	0	0	0	483	1020	
3	0	0	0	0	482	1020	
4	0	0	0	0	481	1020	
5	0	0	0	0	483	1020	
6	0	0	0	0	483	1020	
7	0	0	0	0	483	1020	
8	0	0	0	0	482	1020	
9	0	0	0	0	480	1020	
10	0	0	0	0	479	1020	
11	0	0	0	0	475	1020	
12	0	0	0	0	470	1020	
13	0	0	0	0	462	1020	
14	0	0	0	0	453	1020	
15	0	0	0	0	444	1020	
0	0	0	0	0	435	1020	
1	0	0	0	0	429	1020	
2	0	0	0	0	423	1020	
3	0	0	0	0	420	1020	
4	0	0	0	0	419	1020	
5	0	0	0	0	422	1020	
6	0	0	0	0	426	1020	
7	0	0	0	0	431	1020	
8	0	0	0	0	435	1020	
9	0	0	0	0	442	1020	
10	0	0	0	0	449	1020	
11	0	0	0	0	459	1020	
12	0	0	0	0	469	1020	
13	0	0	0	0	480	1020	
14	0	0	0	0	494	1020	
15	0	0	0	0	510	1020	
0	0	0	0	0	528	1020	
1	0	0	0	0	551	1020	
2	0	0	0	0	579	1020	
3	0	0	0	0	612	1020	
4	0	0	0	0	650	1020	
5	0	0	0	0	691	1020	
6	0	0	0	0	736	1020	
7	0	0	0	0	786	1020	
8	0	0	0	0	838	1020	
9	0	0	0	0	887	1020	
10	0	0	0	0	933	1020	
11	0	0	0	0	973	1020	
12	0	0	0	0	1006	1020	
13	0	0	0	0	1022	1020	
14	0	0	0	0	1022	1020	
15	0	0	0	0	1022	1020	
0	0	0	0	0	1013	1020	
1	0	0	0	0	995	1020	
2	0	0	0	0	970	1020	
3	0	0	0	0	940	1020	
4	0	0	0	0	906	1020	
5	0	0	0	0	871	1020	
6	0	0	0	0	829	1020	
7	0	0	0	0	782	1020	
8	0	0	0	0	734	1020	
9	0	0	0	0	687	1020	
10	0	0	0	0	641	1020	
11	0	0	0	0	598	1020	
12	0	0	0	0	561	1020	
13	0	0	0	0	527	1020	
14	0	0	0	0	495	1020	
15	0	0	0	0	469	1020	
0	0	0	0	0	445	1020	
1	0	0	0	0	427	1020	
2	0	0	0	0	412	1020	
3	0	0	0	0	399	1020	
4	0	0	0	0	391	1020	
5	0	0	0	0	386	1020	
6	0	0	0	0	384	1020	
7	0	0	0	0	385	1020	
8	0	0	0	0	390	1020	
9	0	0	0	0	396	1020	
10	0	0	0	0	401	1020	
11	0	0	0	0	407	1020	
12	0	0	0	0	409	1020	
13	0	0	0	0	412	1020	
14	0	0	0	0	413	1020	
15	0	0	0	0	414	1020	
0	0	0	0	0	416	1020	
1	0	0	0	0	418	1020	
2	0	0	0	0	420	1020	
3	0	0	0	0	421	1020	
4	0	0	0	0	422	1020	
5	0	0	0	0	424	1020	
6	0	0	0	0	426	1020	
7	0	0	0	0	428	1020	
8	0	0	0	0	430	1020	
9	0	0	0	0	432	1020	
10	0	0	0	0	434	1020	
11	0	0	0	0	435	1020	
12	0	0	0	0	436	1020	
13	0	0	0	0	437	1020	
14	0	0	0	0	438	1020	
15	0	0	0	0	439	1020	
0	0	0	0	0	440	1020	
1	0	0	0	0	439	1020	
2	0	0	0	0	440	1020	
3	0	0	0	0	439	1020	
4	0	0	0	0	439	1020	
5	0	0	0	0	440	1020	
6	0	0	0	0	441	1020	
7	0	0	0	0	442	1020	
8	0	0	0	0	443	1020	
9	0	0	0	0	444	1020	
10	0	0	0	0	443	1020	
11	0	0	0	0	443	1020	
12	0	0	0	0	444	1020	
13	0	0	0	0	444	1020	
14	0	0	0	0	444	1020	
15	0	0	0	0	446	1020	
0	0	0	0	0	449	1020	
1	0	0	0	0	451	1020	
2	0	0	0	0	452	1020	
3	0	0	0	0	453	1020	
4	0	0	0	0	455	1020	
5	0	0	0	0	455	1020	
6	0	0	0	0	457	1020	
7	0	0	0	0	458	1020	
8	0	0	0	0	458	1020	
9	0	0	0	0	459	1020	
10	0	0	0	0	460	1020	
11	0	0	0	0	461	1020	
12	0	0	0	0	462	1020	
13	0	0	0	0	463	1020	
14	0	0	0	0	464	1020	
15	0	0	0	0	465	1020	
0	0	0	0	0	467	1020	
1	0	0	0	0	469	1020	
2	0	0	0	0	471	1020	
3	0	0	0	0	473	1020	
4	0	0	0	0	474	1020	
5	0	0	0	0	476	1020	
6	0	0	0	0	477	1020	
7	0	0	0	0	478	1020	
8	0	0	0	0	480	1020	
9	0	0	0	0	481	1020	
10	0	0	0	0	481	1020	
11	0	0	0	0	482	1020	
12	0	0	0	0	483	1020	
13	0	0	0	0	484	1020	
14	0	0	0	0	486	1020	
15	0	0	0	0	487	1020	
0	0	0	0	0	487	1020	
1	0	0	0	0	488	1020	
2	0	0	0	0	491	1020	
3	0	0	0	0	491	1020	
4	0	0	0	0	492	1020	
5	0	0	0	0	493	1020	
6	0	0	0	0	495	1020	
7	0	0	0	0	496	1020	
8	0	0	0	0	496	1020	
9	0	0	0	0	497	1020	
10	0	0	0	0	497	1020	
11	0	0	0	0	497	1020	
12	0	0	0	0	498	1020	
13	0	0	0	0	499	1020	
14	0	0	0	0	501	1020	
15	0	0	0	0	503	1020	
0	0	0	0	0	504	1020	
1	0	0	0	0	504	1020	
2	0	0	0	0	505	1020	
3	0	0	0	0	506	1020	
4	0	0	0	0	507	1020	
5	0	0	0	0	508	1020	
6	0	0	0	0	509	1020	
7	0	0	0	0	510	1020	
8	0	0	0	0	510	1020	
9	0	0	0	0	511	1020	
10	0	0	0	0	512	1020	
11	0	0	0	0	515	1020	
12	0	0	0	0	516	1020	
13	0	0	0	0	518	1020	
14	0	0	0	0	519	1020	
15	0	0	0	0	520	1020	
0	0	0	0	0	521	1020	
1	0	0	0	0	522	1020	
2	0	0	0	0	523	1020	
3	0	0	0	0	524	1020	
4	0	0	0	0	526	1020	
5	0	0	0	0	527	1020	
6	0	0	0	0	528	1020	
7	0	0	0	0	527	1020	
8	0	0	0	0	528	1020	
9	0	0	0	0	528	1020	
10	0	0	0	0	529	1020	
11	0	0	0	0	530	1020	
12	0	0	0	0	532	1020	
13	0	0	0	0	531	1020	
14	0	0	0	0	532	1020	
15	0	0	0	0	534	1020	
0	0	0	0	0	534	1020	
1	0	0	0	0	536	1020	
2	0	0	0	0	538	1020	
3	0	0	0	0	540	1020	
4	0	0	0	0	542	1020	
5	0	0	0	0	544	1020	
6	0	0	0	0	545	1020	
7	0	0	0	0	547	1020	
8	0	0	0	0	549	1020	
9	0	0	0	0	550	1020	
10	0	0	0	0	551	1020	
11	0	0	0	0	552	1020	
12	0	0	0	0	553	1020	
13	0	0	0	0	555	1020	
14	0	0	0	0	555	1020	
15	0	0	0	0	556	1020	
0	0	0	0	0	558	1020	
1	0	0	0	0	560	1020	
2	0	0	0	0	562	1020	
3	0	0	0	0	564	1020	
4	0	0	0	0	565	1020	
5	0	0	0	0	567	1020	
6	0	0	0	0	566	1020	
7	0	0	0	0	567	1020	
8	0	0	0	0	568	1020	
9	0	0	0	0	569	1020	
10	0	0	0	0	571	1020	
11	0	0	0	0	573	1020	
12	0	0	0	0	573	1020	
13	0	0	0	0	572	1020	
14	0	0	0	0	572	1020	
15	0	0	0	0	572	1020	
0	0	0	0	0	571	1020	
1	0	0	0	0	572	1020	
2	0	0	0	0	572	1020	
3	0	0	0	0	573	1020	
4	0	0	0	0	573	1020	
5	0	0	0	0	574	1020	
6	0	0	0	0	574	1020	
7	0	0	0	0	574	1020	
8	0	0	0	0	574	1020	
9	0	0	0	0	575	1020	
10	0	0	0	0	574	1020	
11	0	0	0	0	574	1020	
12	0	0	0	0	572	1020	
13	0	0	0	0	571	1020	
14	0	0	0	0	570	1020	
15	0	0	0	0	567	1020	
0	0	0	0	0	566	1020	
1	0	0	0	0	566	1020	
2	0	0	0	0	564	1020	
3	0	0	0	0	564	1020	
4	0	0	0	0	563	1020	
5	0	0	0	0	561	1020	
6	0	0	0	0	560	1020	
7	0	0	0	0	559	1020	
8	0	0	0	0	557	1020	
9	0	0	0	0	555	1020	
10	0	0	0	0	553	1020	
11	0	0	0	0	551	1020	
12	0	0	0	0	548	1020	
13	0	0	0	0	547	1020	
14	0	0	0	0	544	1020	
15	0	0	0	0	541	1020	
0	0	0	0	0	538	1020	
1	0	0	0	0	535	1020	
2	0	0	0	0	534	1020	
3	0	0	0	0	532	1020	
4	0	0	0	0	529	1020	
5	0	0	0	0	527	1020	
6	0	0	0	0	524	1020	
7	0	0	0	0	520	1020	
8	0	0	0	0	517	1020	
9	0	0	0	0	514	1020	
10	0	0	0	0	511	1020	
11	0	0	0	0	508	1020	
12	0	0	0	0	504	1020	
13	0	0	0	0	499	1020	
14	0	0	0	0	495	1020	
15	0	0	0	0	490	1020	
0	0	0	0	0	487	1020	
1	0	0	0	0	484	1020	
2	0	0	0	0	480	1020	
3	0	0	0	0	478	1020	
4	0	0	0	0	476	1020	
5	0	0	0	0	476	1020	
6	0	0	0	0	473	1020	
7	0	0	0	0	471	1020	
8	0	0	0	0	468	1020	
9	0	0	0	0	466	1020	
10	0	0	0	0	463	1020	
11	0	0	0	0	461	1020	
12	0	0	0	0	457	1020	
13	0	0	0	0	455	1020	
14	0	0	0	0	453	1020	
15	0	0	0	0	451	1020	
0	0	0	0	0	449	1020	
1	0	0	0	0	447	1020	
2	0	0	0	0	445	1020	
3	0	0	0	0	443	1020	
4	0	0	0	0	441	1020	
5	0	0	0	0	440	1020	
6	0	0	0	0	439	1020	
7	0	0	0	0	440	1020	
8	0	0	0	0	439	1020	
9	0	0	0	0	439	1020	
10	0	0	0	0	438	1020	
11	0	0	0	0	437	1020	
12	0	0	0	0	436	1020	
13	0	0	0	0	437	1020	
14	0	0	0	0	436	1020	
15	0	0	0	0	435	1020	
0	0	0	0	0	434	1020	
1	0	0	0	0	433	1020	
2	0	0	0	0	432	1020	
3	0	0	0	0	433	1020	
4	0	0	0	0	433	1020	
5	0	0	0	0	432	1020	
6	0	0	0	0	432	1020	
7	0	0	0	0	433	1020	
8	0	0	0	0	433	1020	
9	0	0	0	0	434	1020	
10	0	0	0	0	434	1020	
11	0	0	0	0	433	1020	
12	0	0	0	0	432	1020	
13	0	0	0	0	432	1020	
14	0	0	0	0	433	1020	
15	0	0	0	0	434	1020	
0	0	0	0	0	434	1020	
1	0	0	0	0	434	1020	
2	0	0	0	0	434	1020	
3	0	0	0	0	434	1020	
4	0	0	0	0	434	1020	
5	0	0	0	0	434	1020	
6	0	0	0	0	435	1020	
7	0	0	0	0	436	1020	
8	0	0	0	0	438	1020	
9	0	0	0	0	439	1020	
10	0	0	0	0	440	1020	
11	0	0	0	0	442	1020	
12	0	0	0	0	442	1020	
13	0	0	0	0	444	1020	
14	0	0	0	0	444	1020	
15	0	0	0	0	444	1020	
0	0	0	0	0	444	1020	
1	0	0	0	0	443	1020	
2	0	0	0	0	443	1020	
3	0	0	0	0	444	1020	
4	0	0	0	0	443	1020	
5	0	0	0	0	444	1020	
6	0	0	0	0	445	1020	
7	0	0	0	0	447	1020	
8	0	0	0	0	449	1020	
9	0	0	0	0	449	1020	
10	0	0	0	0	450	1020	
11	0	0	0	0	451	1020	
12	0	0	0	0	453	1020	
13	0	0	0	0	453	1020	
14	0	0	0	0	455	1020	
15	0	0	0	0	456	1020	
0	0	0	0	0	456	1020	
1	0	0	0	0	455	1020	
2	0	0	0	0	455	1020	
3	0	0	0	0	456	1020	
4	0	0	0	0	459	1020	
5	0	0	0	0	460	1020	
6	0	0	0	0	460	1020	
7	0	0	0	0	462	1020	
8	0	0	0	0	461	1020	
9	0	0	0	0	463	1020	
10	0	0	0	0	466	1020	
11	0	0	0	0	467	1020	
12	0	0	0	0	466	1020	
13	0	0	0	0	468	1020	
14	0	0	0	0	468	1020	
15	0	0	0	0	469	1020	
0	0	0	0	0	470	1020	
1	0	0	0	0	471	1020	
2	0	0	0	0	473	1020	
3	0	0	0	0	473	1020	
4	0	0	0	0	473	1020	
5	0	0	0	0	475	1020	
6	0	0	0	0	475	1020	
7	0	0	0	0	477	1020	
8	0	0	0	0	479	1020	
9	0	0	0	0	480	1020	
10	0	0	0	0	481	1020	
11	0	0	0	0	483	1020	
12	0	0	0	0	484	1020	
13	0	0	0	0	484	1020	
14	0	0	0	0	485	1020	
15	0	0	0	0	486	1020	
0	0	0	0	0	486	1020	
1	0	0	0	0	487	1020	
2	0	0	0	0	489	1020	
3	0	0	0	0	490	1020	
4	0	0	0	0	490	1020	
5	0	0	0	0	491	1020	
6	0	0	0	0	492	1020	
7	0	0	0	0	492	1020	
8	0	0	0	0	492	1020	
9	0	0	0	0	491	1020	
10	0	0	0	0	492	1020	
11	0	0	0	0	494	1020	
12	0	0	0	0	494	1020	
13	0	0	0	0	494	1020	
14	0	0	0	0	495	1020	
15	0	0	0	0	495	1020	
0	0	0	0	0	494	1020	
1	0	0	0	0	495	1020	
2	0	0	0	0	495	1020	
3	0	0	0	0	495	1020	
4	0	0	0	0	496	1020	
5	0	0	0	0	497	1020	
6	0	0	0	0	497	1020	
7	0	0	0	0	497	1020	
8	0	0	0	0	498	1020	
9	0	0	0	0	499	1020	
10	0	0	0	0	499	1020	
11	0	0	0	0	501	1020	
12	0	0	0	0	501	1020	
13	0	0	0	0	501	1020	
14	0	0	0	0	502	1020	
15	0	0	0	0	503	1020	
0	0	0	0	0	503	1020	
1	0	0	0	0	503	1020	
2	0	0	0	0	504	1020	
3	0	0	0	0	505	1020	
4	0	0	0	0	504	1020	
5	0	0	0	0	507	1020	
6	0	0	0	0	505	1020	
7	0	0	0	0	506	1020	
8	0	0	0	0	506	1020	
9	0	0	0	0	504	1020	
10	0	0	0	0	504	1020	
11	0	0	0	0	505	1020	
12	0	0	0	0	506	1020	
13	0	0	0	0	507	1020	
14	0	0	0	0	508	1020	
15	0	0	0	0	509	1020	
0	0	0	0	0	510	1020	
1	0	0	0	0	510	1020	
2	0	0	0	0	510	1020	
3	0	0	0	0	509	1020	
4	0	0	0	0	508	1020	
5	0	0	0	0	508	1020	
6	0	0	0	0	508	1020	
7	0	0	0	0	509	1020	
8	0	0	0	0	509	1020	
9	0	0	0	0	509	1020	
10	0	0	0	0	509	1020	
11	0	0	0	0	510	1020	
12	0	0	0	0	510	1020	
13	0	0	0	0	509	1020	
14	0	0	0	0	510	1020	
15	0	0	0	0	510	1020	
0	0	0	0	0	512	1020	
1	0	0	0	0	511	1020	
2	0	0	0	0	512	1020	
3	0	0	0	0	512	1020	
4	0	0	0	0	511	1020	
5	0	0	0	0	511	1020	
6	0	0	0	0	511	1020	
7	0	0	0	0	511	1020	
8	0	0	0	0	511	1020	
9	0	0	0	0	511	1020	
10	0	0	0	0	513	1020	
11	0	0	0	0	514	1020	
12	0	0	0	0	514	1020	
13	0	0	0	0	515	1020	
14	0	0	0	0	515	1020	
15	0	0	0	0	514	1020	
0	0	0	0	0	514	1020	
1	0	0	0	0	513	1020	
2	0	0	0	0	514	1020	
3	0	0	0	0	515	1020	
4	0	0	0	0	516	1020	
5	0	0	0	0	514	1020	
6	0	0	0	0	515	1020	
7	0	0	0	0	514	1020	
8	0	0	0	0	512	1020	
9	0	0	0	0	512	1020	
10	0	0	0	0	513	1020	
11	0	0	0	0	514	1020	
12	0	0	0	0	513	1020	
13	0	0	0	0	512	1020	
14	0	0	0	0	513	1020	
15	0	0	0	0	513	1020	
0	0	0	0	0	513	1020	
1	0	0	0	0	513	1020	
2	0	0	0	0	513	1020	
3	0	0	0	0	512	1020	
4	0	0	0	0	512	1020	
5	0	0	0	0	512	1020	
6	0	0	0	0	515	1020	
7	0	0	0	0	516	1020	
8	0	0	0	0	516	1020	
9	0	0	0	0	517	1020	
10	0	0	0	0	518	1020	
11	0	0	0	0	519	1020	
12	0	0	0	0	519	1020	
13	0	0	0	0	520	1020	
14	0	0	0	0	521	1020	
15	0	0	0	0	523	1020	
0	0	0	0	0	526	1020	
1	0	0	0	0	527	1020	
2	0	0	0	0	528	1020	
3	0	0	0	0	529	1020	
4	0	0	0	0	531	1020	
5	0	0	0	0	532	1020	
6	0	0	0	0	532	1020	
7	0	0	0	0	534	1020	
8	0	0	0	0	534	1020	
9	0	0	0	0	533	1020	
10	0	0	0	0	532	1020	
11	0	0	0	0	530	1020	
12	0	0	0	0	531	1020	
13	0	0	0	0	530	1020	
14	0	0	0	0	529	1020	
15	0	0	0	0	531	1020	
0	0	0	0	0	532	1020	
1	0	0	0	0	534	1020	
2	0	0	0	0	536	1020	
3	0	0	0	0	537	1020	
4	0	0	0	0	539	1020	
5	0	0	0	0	542	1020	
6	0	0	0	0	544	1020	
7	0	0	0	0	547	1020	
8	0	0	0	0	550	1020	
9	0	0	0	0	552	1020	
10	0	0	0	0	553	1020	
11	0	0	0	0	554	1020	
12	0	0	0	0	555	1020	
13	0	0	0	0	554	1020	
14	0	0	0	0	553	1020	
15	0	0	0	0	551	1020	
0	0	0	0	0	550	1020	
1	0	0	0	0	548	1020	
2	0	0	0	0	547	1020	
3	0	0	0	0	546	1020	
4	0	0	0	0	545	1020	
5	0	0	0	0	543	1020	
6	0	0	0	0	543	1020	
7	0	0	0	0	543	1020	
8	0	0	0	0	543	1020	
9	0	0	0	0	543	1020	
10	0	0	0	0	544	1020	
11	0	0	0	0	542	1020	
12	0	0	0	0	540	1020	
13	0	0	0	0	538	1020	
14	0	0	0	0	537	1020	
15	0	0	0	0	537	1020	
0	0	0	0	0	536	1020	
1	0	0	0	0	536	1020	
2	0	0	0	0	536	1020	
3	0	0	0	0	535	1020	
4	0	0	0	0	535	1020	
5	0	0	0	0	536	1020	
6	0	0	0	0	536	1020	
7	0	0	0	0	536	1020	
8	0	0	0	0	535	1020	
9	0	0	0	0	533	1020	
10	0	0	0	0	533	1020	
11	0	0	0	0	532	1020	
12	0	0	0	0	530	1020	
13	0	0	0	0	528	1020	
14	0	0	0	0	524	1020	
15	0	0	0	0	521	1020	
0	0	0	0	0	519	1020	
1	0	0	0	0	517	1020	
2	0	0	0	0	515	1020	
3	0	0	0	0	513	1020	
4	0	0	0	0	511	1020	
5	0	0	0	0	507	1020	
6	0	0	0	0	505	1020	
7	0	0	0	0	503	1020	
8	0	0	0	0	501	1020	
9	0	0	0	0	498	1020	
10	0	0	0	0	496	1020	
11	0	0	0	0	492	1020	
12	0	0	0	0	489	1020	
13	0	0	0	0	488	1020	
14	0	0	0	0	487	1020	
15	0	0	0	0	487	1020	
0	0	0	0	0	487	1020	
1	0	0	0	0	486	1020	
2	0	0	0	0	486	1020	
3	0	0	0	0	485	1020	
4	0	0	0	0	485	1020	
5	0	0	0	0	484	1020	
6	0	0	0	0	484	1020	
7	0	0	0	0	484	1020	
8	0	0	0	0	483	1020	
9	0	0	0	0	483	1020	
10	0	0	0	0	483	1020	
11	0	0	0	0	483	1020	
12	0	0	0	0	483	1020	
13	0	0	0	0	481	1020	
14	0	0	0	0	481	1020	
15	0	0	0	0	481	1020	
