# OpenSignals Text File Format. Version 1
# {"98:D3:71:FE:38:1C": {"position": 0, "device": "bitalino_rev", "device name": "98:D3:71:FE:38:1C", "device connection": "BTH98:D3:71:FE:38:1C", "sampling rate": 1000, "resolution": [4, 1, 1, 1, 1, 10, 10], "firmware version": 1282, "comments": "", "keywords": "", "mode": 0, "sync interval": 2, "date": "2026-6-26", "time": "15:31:51.332", "channels": [1, 2], "sensor": ["ECGBIT", "EDABITREV"], "label": ["A1", "A2"], "column": ["nSeq", "I1", "I2", "O1", "O2", "A1", "A2"], "special": [{}, {}], "digital IO": [0, 0, 1, 1]}}
# EndOfHeader
0	0	0	0	0	481	699	
1	0	0	0	0	480	699	
2	0	0	0	0	480	699	
3	0	0	0	0	483	699	
4	0	0	0	0	485	699	
5	0	0	0	0	486	699	
6	0	0	0	0	487	699	
7	0	0	0	0	487	699	
8	0	0	0	0	486	699	
9	0	0	0	0	486	699	
10	0	0	0	0	486	699	
11	0	0	0	0	486	699	
12	0	0	0	0	485	700	
13	0	0	0	0	485	699	
14	0	0	0	0	485	700	
15	0	0	0	0	485	700	
0	0	0	0	0	486	700	
1	0	0	0	0	484	699	
2	0	0	0	0	483	700	
3	0	0	0	0	483	699	
4	0	0	0	0	484	700	
5	0	0	0	0	487	699	
6	0	0	0	0	489	700	
7	0	0	0	0	491	700	
8	0	0	0	0	493	700	
9	0	0	0	0	495	700	
10	0	0	0	0	496	700	
11	0	0	0	0	496	700	
12	0	0	0	0	496	700	
13	0	0	0	0	496	700	
14	0	0	0	0	495	700	
15	0	0	0	0	493	700	
0	0	0	0	0	493	700	
1	0	0	0	0	492	700	
2	0	0	0	0	493	700	
3	0	0	0	0	492	700	
4	0	0	0	0	492	700	
5	0	0	0	0	492	700	
6	0	0	0	0	494	700	
7	0	0	0	0	495	700	
8	0	0	0	0	496	700	
9	0	0	0	0	498	700	
10	0	0	0	0	499	700	
11	0	0	0	0	496	700	
12	0	0	0	0	495	700	
13	0	0	0	0	495	700	
14	0	0	0	0	495	700	
15	0	0	0	0	496	701	
0	0	0	0	0	499	701	
1	0	0	0	0	501	700	
2	0	0	0	0	501	700	
3	0	0	0	0	500	700	
4	0	0	0	0	501	700	
5	0	0	0	0	503	700	
6	0	0	0	0	505	701	
7	0	0	0	0	505	700	
8	0	0	0	0	505	701	
9	0	0	0	0	506	701	
10	0	0	0	0	506	700	
11	0	0	0	0	508	701	
12	0	0	0	0	511	701	
13	0	0	0	0	514	701	
14	0	0	0	0	514	701	
15	0	0	0	0	514	701	
0	0	0	0	0	515	701	
1	0	0	0	0	516	701	
2	0	0	0	0	517	701	
3	0	0	0	0	519	700	
4	0	0	0	0	520	701	
5	0	0	0	0	521	701	
6	0	0	0	0	520	701	
7	0	0	0	0	519	701	
8	0	0	0	0	519	701	
9	0	0	0	0	519	701	
10	0	0	0	0	521	701	
11	0	0	0	0	523	701	
12	0	0	0	0	524	701	
13	0	0	0	0	524	701	
14	0	0	0	0	523	701	
15	0	0	0	0	523	701	
0	0	0	0	0	524	701	
1	0	0	0	0	523	701	
2	0	0	0	0	523	701	
3	0	0	0	0	522	701	
4	0	0	0	0	521	702	
5	0	0	0	0	520	701	
6	0	0	0	0	520	702	
7	0	0	0	0	520	701	
8	0	0	0	0	521	701	
9	0	0	0	0	521	702	
10	0	0	0	0	523	701	
11	0	0	0	0	524	702	
12	0	0	0	0	523	702	
13	0	0	0	0	523	701	
14	0	0	0	0	523	702	
15	0	0	0	0	522	702	
0	0	0	0	0	521	702	
1	0	0	0	0	519	702	
2	0	0	0	0	517	702	
3	0	0	0	0	515	702	
4	0	0	0	0	514	702	
5	0	0	0	0	514	702	
6	0	0	0	0	514	702	
7	0	0	0	0	515	702	
8	0	0	0	0	517	702	
9	0	0	0	0	519	702	
10	0	0	0	0	520	702	
11	0	0	0	0	521	702	
12	0	0	0	0	523	702	
13	0	0	0	0	526	702	
14	0	0	0	0	527	702	
15	0	0	0	0	527	702	
0	0	0	0	0	526	702	
1	0	0	0	0	525	702	
2	0	0	0	0	526	702	
3	0	0	0	0	525	702	
4	0	0	0	0	523	702	
5	0	0	0	0	521	702	
6	0	0	0	0	520	702	
7	0	0	0	0	519	702	
8	0	0	0	0	518	702	
9	0	0	0	0	516	702	
10	0	0	0	0	511	702	
11	0	0	0	0	508	702	
12	0	0	0	0	504	702	
13	0	0	0	0	503	702	
14	0	0	0	0	499	703	
15	0	0	0	0	497	702	
0	0	0	0	0	495	702	
1	0	0	0	0	494	702	
2	0	0	0	0	495	703	
3	0	0	0	0	496	702	
4	0	0	0	0	499	702	
5	0	0	0	0	500	703	
6	0	0	0	0	502	703	
7	0	0	0	0	504	703	
8	0	0	0	0	503	703	
9	0	0	0	0	501	702	
10	0	0	0	0	501	703	
11	0	0	0	0	502	703	
12	0	0	0	0	503	703	
13	0	0	0	0	504	703	
14	0	0	0	0	506	703	
15	0	0	0	0	504	703	
0	0	0	0	0	502	703	
1	0	0	0	0	499	703	
2	0	0	0	0	498	703	
3	0	0	0	0	496	703	
4	0	0	0	0	495	703	
5	0	0	0	0	492	703	
6	0	0	0	0	490	703	
7	0	0	0	0	490	703	
8	0	0	0	0	489	703	
9	0	0	0	0	488	703	
10	0	0	0	0	489	703	
11	0	0	0	0	488	703	
12	0	0	0	0	489	703	
13	0	0	0	0	492	703	
14	0	0	0	0	492	703	
15	0	0	0	0	492	704	
0	0	0	0	0	493	703	
1	0	0	0	0	493	703	
2	0	0	0	0	494	704	
3	0	0	0	0	494	703	
4	0	0	0	0	493	704	
5	0	0	0	0	492	704	
6	0	0	0	0	492	704	
7	0	0	0	0	491	704	
8	0	0	0	0	489	703	
9	0	0	0	0	490	704	
10	0	0	0	0	491	704	
11	0	0	0	0	492	704	
12	0	0	0	0	493	704	
13	0	0	0	0	495	703	
14	0	0	0	0	499	704	
15	0	0	0	0	500	704	
0	0	0	0	0	501	704	
1	0	0	0	0	502	704	
2	0	0	0	0	500	704	
3	0	0	0	0	500	704	
4	0	0	0	0	499	704	
5	0	0	0	0	499	704	
6	0	0	0	0	499	704	
7	0	0	0	0	497	704	
8	0	0	0	0	496	704	
9	0	0	0	0	494	704	
10	0	0	0	0	494	704	
11	0	0	0	0	495	704	
12	0	0	0	0	496	704	
13	0	0	0	0	497	704	
14	0	0	0	0	499	704	
15	0	0	0	0	499	704	
0	0	0	0	0	499	704	
1	0	0	0	0	499	704	
2	0	0	0	0	500	704	
3	0	0	0	0	499	704	
4	0	0	0	0	499	704	
5	0	0	0	0	498	704	
6	0	0	0	0	498	704	
7	0	0	0	0	499	704	
8	0	0	0	0	500	704	
9	0	0	0	0	502	704	
10	0	0	0	0	500	704	
11	0	0	0	0	498	704	
12	0	0	0	0	498	704	
13	0	0	0	0	496	704	
14	0	0	0	0	494	704	
15	0	0	0	0	493	704	
0	0	0	0	0	492	704	
1	0	0	0	0	490	705	
2	0	0	0	0	488	705	
3	0	0	0	0	483	705	
4	0	0	0	0	478	705	
5	0	0	0	0	476	705	
6	0	0	0	0	475	705	
7	0	0	0	0	475	705	
8	0	0	0	0	474	704	
9	0	0	0	0	475	705	
10	0	0	0	0	477	705	
11	0	0	0	0	481	705	
12	0	0	0	0	485	705	
13	0	0	0	0	492	705	
14	0	0	0	0	500	705	
15	0	0	0	0	510	705	
0	0	0	0	0	521	705	
1	0	0	0	0	534	705	
2	0	0	0	0	545	704	
3	0	0	0	0	558	705	
4	0	0	0	0	568	705	
5	0	0	0	0	579	705	
6	0	0	0	0	590	705	
7	0	0	0	0	601	705	
8	0	0	0	0	615	705	
9	0	0	0	0	632	705	
10	0	0	0	0	649	705	
11	0	0	0	0	668	704	
12	0	0	0	0	689	704	
13	0	0	0	0	713	705	
14	0	0	0	0	742	704	
15	0	0	0	0	772	704	
0	0	0	0	0	802	704	
1	0	0	0	0	832	704	
2	0	0	0	0	854	704	
3	0	0	0	0	863	704	
4	0	0	0	0	862	705	
5	0	0	0	0	852	704	
6	0	0	0	0	838	705	
7	0	0	0	0	819	704	
8	0	0	0	0	796	704	
9	0	0	0	0	767	704	
10	0	0	0	0	734	704	
11	0	0	0	0	701	704	
12	0	0	0	0	672	704	
13	0	0	0	0	647	705	
14	0	0	0	0	623	705	
15	0	0	0	0	599	705	
0	0	0	0	0	576	705	
1	0	0	0	0	555	705	
2	0	0	0	0	535	705	
3	0	0	0	0	518	705	
4	0	0	0	0	504	705	
5	0	0	0	0	491	705	
6	0	0	0	0	479	705	
7	0	0	0	0	467	705	
8	0	0	0	0	455	705	
9	0	0	0	0	444	705	
10	0	0	0	0	435	705	
11	0	0	0	0	430	705	
12	0	0	0	0	423	706	
13	0	0	0	0	421	706	
14	0	0	0	0	419	705	
15	0	0	0	0	419	705	
0	0	0	0	0	418	706	
1	0	0	0	0	419	706	
2	0	0	0	0	422	706	
3	0	0	0	0	427	706	
4	0	0	0	0	431	706	
5	0	0	0	0	437	706	
6	0	0	0	0	443	706	
7	0	0	0	0	446	706	
8	0	0	0	0	450	706	
9	0	0	0	0	452	706	
10	0	0	0	0	454	706	
11	0	0	0	0	457	706	
12	0	0	0	0	461	706	
13	0	0	0	0	463	706	
14	0	0	0	0	464	706	
15	0	0	0	0	467	706	
0	0	0	0	0	469	706	
1	0	0	0	0	470	706	
2	0	0	0	0	471	706	
3	0	0	0	0	474	706	
4	0	0	0	0	477	706	
5	0	0	0	0	479	706	
6	0	0	0	0	479	706	
7	0	0	0	0	478	706	
8	0	0	0	0	478	706	
9	0	0	0	0	479	706	
10	0	0	0	0	478	706	
11	0	0	0	0	479	707	
12	0	0	0	0	480	706	
13	0	0	0	0	482	706	
14	0	0	0	0	481	707	
15	0	0	0	0	481	706	
0	0	0	0	0	482	707	
1	0	0	0	0	482	707	
2	0	0	0	0	482	706	
3	0	0	0	0	482	706	
4	0	0	0	0	484	706	
5	0	0	0	0	485	707	
6	0	0	0	0	486	707	
7	0	0	0	0	488	707	
8	0	0	0	0	488	707	
9	0	0	0	0	488	707	
10	0	0	0	0	487	706	
11	0	0	0	0	487	707	
12	0	0	0	0	486	707	
13	0	0	0	0	487	707	
14	0	0	0	0	488	707	
15	0	0	0	0	492	707	
0	0	0	0	0	497	707	
1	0	0	0	0	498	707	
2	0	0	0	0	498	707	
3	0	0	0	0	498	707	
4	0	0	0	0	498	707	
5	0	0	0	0	498	707	
6	0	0	0	0	497	707	
7	0	0	0	0	498	707	
8	0	0	0	0	499	707	
9	0	0	0	0	499	707	
10	0	0	0	0	498	707	
11	0	0	0	0	498	707	
12	0	0	0	0	499	707	
13	0	0	0	0	499	707	
14	0	0	0	0	499	707	
15	0	0	0	0	498	707	
0	0	0	0	0	499	707	
1	0	0	0	0	501	707	
2	0	0	0	0	504	707	
3	0	0	0	0	506	707	
4	0	0	0	0	508	707	
5	0	0	0	0	511	707	
6	0	0	0	0	512	707	
7	0	0	0	0	513	707	
8	0	0	0	0	513	707	
9	0	0	0	0	512	707	
10	0	0	0	0	512	707	
11	0	0	0	0	512	707	
12	0	0	0	0	512	707	
13	0	0	0	0	514	708	
14	0	0	0	0	515	707	
15	0	0	0	0	517	707	
0	0	0	0	0	518	707	
1	0	0	0	0	517	707	
2	0	0	0	0	516	707	
3	0	0	0	0	516	707	
4	0	0	0	0	516	707	
5	0	0	0	0	518	707	
6	0	0	0	0	519	707	
7	0	0	0	0	517	707	
8	0	0	0	0	517	707	
9	0	0	0	0	519	707	
10	0	0	0	0	520	707	
11	0	0	0	0	522	707	
12	0	0	0	0	523	707	
13	0	0	0	0	522	708	
14	0	0	0	0	523	707	
15	0	0	0	0	524	708	
0	0	0	0	0	525	707	
1	0	0	0	0	526	708	
2	0	0	0	0	526	707	
3	0	0	0	0	526	707	
4	0	0	0	0	526	707	
5	0	0	0	0	526	707	
6	0	0	0	0	527	708	
7	0	0	0	0	527	707	
8	0	0	0	0	527	708	
9	0	0	0	0	527	708	
10	0	0	0	0	528	707	
11	0	0	0	0	529	707	
12	0	0	0	0	531	708	
13	0	0	0	0	531	708	
14	0	0	0	0	531	708	
15	0	0	0	0	530	708	
0	0	0	0	0	533	708	
1	0	0	0	0	534	708	
2	0	0	0	0	533	708	
3	0	0	0	0	531	708	
4	0	0	0	0	527	707	
5	0	0	0	0	525	708	
6	0	0	0	0	523	708	
7	0	0	0	0	523	707	
8	0	0	0	0	525	708	
9	0	0	0	0	527	708	
10	0	0	0	0	531	708	
11	0	0	0	0	532	708	
12	0	0	0	0	533	708	
13	0	0	0	0	535	708	
14	0	0	0	0	538	708	
15	0	0	0	0	540	708	
0	0	0	0	0	542	708	
1	0	0	0	0	544	708	
2	0	0	0	0	546	708	
3	0	0	0	0	544	708	
4	0	0	0	0	544	708	
5	0	0	0	0	544	708	
6	0	0	0	0	542	708	
7	0	0	0	0	542	708	
8	0	0	0	0	542	708	
9	0	0	0	0	544	708	
10	0	0	0	0	546	708	
11	0	0	0	0	545	708	
12	0	0	0	0	545	708	
13	0	0	0	0	545	708	
14	0	0	0	0	546	709	
15	0	0	0	0	545	708	
0	0	0	0	0	544	708	
1	0	0	0	0	543	708	
2	0	0	0	0	543	708	
3	0	0	0	0	543	708	
4	0	0	0	0	544	708	
5	0	0	0	0	546	708	
6	0	0	0	0	549	708	
7	0	0	0	0	551	708	
8	0	0	0	0	553	708	
9	0	0	0	0	555	708	
10	0	0	0	0	556	708	
11	0	0	0	0	556	708	
12	0	0	0	0	558	708	
13	0	0	0	0	560	708	
14	0	0	0	0	561	708	
15	0	0	0	0	561	709	
0	0	0	0	0	560	708	
1	0	0	0	0	560	708	
2	0	0	0	0	562	708	
3	0	0	0	0	563	708	
4	0	0	0	0	564	708	
5	0	0	0	0	567	708	
6	0	0	0	0	568	708	
7	0	0	0	0	569	709	
8	0	0	0	0	570	708	
9	0	0	0	0	572	708	
10	0	0	0	0	572	708	
11	0	0	0	0	573	708	
12	0	0	0	0	574	709	
13	0	0	0	0	572	708	
14	0	0	0	0	570	709	
15	0	0	0	0	568	708	
0	0	0	0	0	566	708	
1	0	0	0	0	565	709	
2	0	0	0	0	561	708	
3	0	0	0	0	560	708	
4	0	0	0	0	561	708	
5	0	0	0	0	561	708	
6	0	0	0	0	561	708	
7	0	0	0	0	562	708	
8	0	0	0	0	564	708	
9	0	0	0	0	565	708	
10	0	0	0	0	565	708	
11	0	0	0	0	564	708	
12	0	0	0	0	564	708	
13	0	0	0	0	564	709	
14	0	0	0	0	565	709	
15	0	0	0	0	566	708	
0	0	0	0	0	566	709	
1	0	0	0	0	566	708	
2	0	0	0	0	566	708	
3	0	0	0	0	564	708	
4	0	0	0	0	563	708	
5	0	0	0	0	562	709	
6	0	0	0	0	561	708	
7	0	0	0	0	559	708	
8	0	0	0	0	557	708	
9	0	0	0	0	556	708	
10	0	0	0	0	556	708	
11	0	0	0	0	555	709	
12	0	0	0	0	554	708	
13	0	0	0	0	555	708	
14	0	0	0	0	557	708	
15	0	0	0	0	557	709	
0	0	0	0	0	558	708	
1	0	0	0	0	559	708	
2	0	0	0	0	558	709	
3	0	0	0	0	556	708	
4	0	0	0	0	555	709	
5	0	0	0	0	554	709	
6	0	0	0	0	553	708	
7	0	0	0	0	552	708	
8	0	0	0	0	551	708	
9	0	0	0	0	550	709	
10	0	0	0	0	550	708	
11	0	0	0	0	551	709	
12	0	0	0	0	552	708	
13	0	0	0	0	552	708	
14	0	0	0	0	552	709	
15	0	0	0	0	550	709	
0	0	0	0	0	548	709	
1	0	0	0	0	547	708	
2	0	0	0	0	545	709	
3	0	0	0	0	543	709	
4	0	0	0	0	540	708	
5	0	0	0	0	538	709	
6	0	0	0	0	536	708	
7	0	0	0	0	533	709	
8	0	0	0	0	532	708	
9	0	0	0	0	532	709	
10	0	0	0	0	530	709	
11	0	0	0	0	529	709	
12	0	0	0	0	529	709	
13	0	0	0	0	529	709	
14	0	0	0	0	529	709	
15	0	0	0	0	528	709	
0	0	0	0	0	526	709	
1	0	0	0	0	522	709	
2	0	0	0	0	517	709	
3	0	0	0	0	516	708	
4	0	0	0	0	515	709	
5	0	0	0	0	512	708	
6	0	0	0	0	511	709	
7	0	0	0	0	512	709	
8	0	0	0	0	511	709	
9	0	0	0	0	511	709	
10	0	0	0	0	511	709	
11	0	0	0	0	511	709	
12	0	0	0	0	512	709	
13	0	0	0	0	513	709	
14	0	0	0	0	513	709	
15	0	0	0	0	514	709	
0	0	0	0	0	513	709	
1	0	0	0	0	513	709	
2	0	0	0	0	512	709	
3	0	0	0	0	509	709	
4	0	0	0	0	504	709	
5	0	0	0	0	498	709	
6	0	0	0	0	496	709	
7	0	0	0	0	494	709	
8	0	0	0	0	493	709	
9	0	0	0	0	492	709	
10	0	0	0	0	492	709	
11	0	0	0	0	495	709	
12	0	0	0	0	496	709	
13	0	0	0	0	498	709	
14	0	0	0	0	500	709	
15	0	0	0	0	500	709	
0	0	0	0	0	502	710	
1	0	0	0	0	500	709	
2	0	0	0	0	500	709	
3	0	0	0	0	501	709	
4	0	0	0	0	500	709	
5	0	0	0	0	500	709	
6	0	0	0	0	499	709	
7	0	0	0	0	496	709	
8	0	0	0	0	496	709	
9	0	0	0	0	497	709	
10	0	0	0	0	499	709	
11	0	0	0	0	502	709	
12	0	0	0	0	503	709	
13	0	0	0	0	503	709	
14	0	0	0	0	504	709	
15	0	0	0	0	505	710	
0	0	0	0	0	504	710	
1	0	0	0	0	504	710	
2	0	0	0	0	504	710	
3	0	0	0	0	502	710	
4	0	0	0	0	500	710	
5	0	0	0	0	497	710	
6	0	0	0	0	494	710	
7	0	0	0	0	493	710	
8	0	0	0	0	493	709	
9	0	0	0	0	492	709	
10	0	0	0	0	494	710	
11	0	0	0	0	495	710	
12	0	0	0	0	496	710	
13	0	0	0	0	496	710	
14	0	0	0	0	497	710	
15	0	0	0	0	498	710	
0	0	0	0	0	500	710	
1	0	0	0	0	502	710	
2	0	0	0	0	502	710	
3	0	0	0	0	500	710	
4	0	0	0	0	500	710	
5	0	0	0	0	499	710	
6	0	0	0	0	499	710	
7	0	0	0	0	498	710	
8	0	0	0	0	499	710	
9	0	0	0	0	499	710	
10	0	0	0	0	500	710	
11	0	0	0	0	502	710	
12	0	0	0	0	503	710	
13	0	0	0	0	504	710	
14	0	0	0	0	504	710	
15	0	0	0	0	503	710	
0	0	0	0	0	502	710	
1	0	0	0	0	504	710	
2	0	0	0	0	506	710	
3	0	0	0	0	508	710	
4	0	0	0	0	508	710	
5	0	0	0	0	508	710	
6	0	0	0	0	508	710	
7	0	0	0	0	507	710	
8	0	0	0	0	505	710	
9	0	0	0	0	504	710	
10	0	0	0	0	503	710	
11	0	0	0	0	504	710	
12	0	0	0	0	505	710	
13	0	0	0	0	504	710	
14	0	0	0	0	504	710	
15	0	0	0	0	504	710	
0	0	0	0	0	503	710	
1	0	0	0	0	504	710	
2	0	0	0	0	505	710	
3	0	0	0	0	507	710	
4	0	0	0	0	508	710	
5	0	0	0	0	510	710	
6	0	0	0	0	511	710	
7	0	0	0	0	512	710	
8	0	0	0	0	512	710	
9	0	0	0	0	512	710	
10	0	0	0	0	512	710	
11	0	0	0	0	510	710	
12	0	0	0	0	508	710	
13	0	0	0	0	509	710	
14	0	0	0	0	510	710	
15	0	0	0	0	511	710	
0	0	0	0	0	512	710	
1	0	0	0	0	512	710	
2	0	0	0	0	511	710	
3	0	0	0	0	513	710	
4	0	0	0	0	515	710	
5	0	0	0	0	516	710	
6	0	0	0	0	516	710	
7	0	0	0	0	517	710	
8	0	0	0	0	518	710	
9	0	0	0	0	517	710	
10	0	0	0	0	515	710	
11	0	0	0	0	513	710	
12	0	0	0	0	513	710	
13	0	0	0	0	513	710	
14	0	0	0	0	514	710	
15	0	0	0	0	515	710	
0	0	0	0	0	516	710	
1	0	0	0	0	517	710	
2	0	0	0	0	516	710	
3	0	0	0	0	515	710	
4	0	0	0	0	515	711	
5	0	0	0	0	514	710	
6	0	0	0	0	513	710	
7	0	0	0	0	512	710	
8	0	0	0	0	511	710	
9	0	0	0	0	511	711	
10	0	0	0	0	511	710	
11	0	0	0	0	512	710	
12	0	0	0	0	514	711	
13	0	0	0	0	515	710	
14	0	0	0	0	516	710	
15	0	0	0	0	517	710	
0	0	0	0	0	519	710	
1	0	0	0	0	521	710	
2	0	0	0	0	522	710	
3	0	0	0	0	524	711	
4	0	0	0	0	525	710	
5	0	0	0	0	525	710	
6	0	0	0	0	525	710	
7	0	0	0	0	525	710	
8	0	0	0	0	524	711	
9	0	0	0	0	523	711	
10	0	0	0	0	520	710	
11	0	0	0	0	515	711	
12	0	0	0	0	512	710	
13	0	0	0	0	512	711	
14	0	0	0	0	511	710	
15	0	0	0	0	512	710	
0	0	0	0	0	513	710	
1	0	0	0	0	514	710	
2	0	0	0	0	516	710	
3	0	0	0	0	518	710	
4	0	0	0	0	519	710	
5	0	0	0	0	520	710	
6	0	0	0	0	521	710	
7	0	0	0	0	523	711	
8	0	0	0	0	524	710	
9	0	0	0	0	525	710	
10	0	0	0	0	526	710	
11	0	0	0	0	525	710	
12	0	0	0	0	526	711	
13	0	0	0	0	525	710	
14	0	0	0	0	525	711	
15	0	0	0	0	526	711	
0	0	0	0	0	527	710	
1	0	0	0	0	527	711	
2	0	0	0	0	526	710	
3	0	0	0	0	528	710	
4	0	0	0	0	531	710	
5	0	0	0	0	532	710	
6	0	0	0	0	533	710	
7	0	0	0	0	535	711	
8	0	0	0	0	537	710	
9	0	0	0	0	536	711	
10	0	0	0	0	535	710	
11	0	0	0	0	531	711	
12	0	0	0	0	529	710	
13	0	0	0	0	528	710	
14	0	0	0	0	527	711	
15	0	0	0	0	526	710	
0	0	0	0	0	527	710	
1	0	0	0	0	528	710	
2	0	0	0	0	531	710	
3	0	0	0	0	533	710	
4	0	0	0	0	534	710	
5	0	0	0	0	536	711	
6	0	0	0	0	534	710	
7	0	0	0	0	533	711	
8	0	0	0	0	533	710	
9	0	0	0	0	534	710	
10	0	0	0	0	536	710	
11	0	0	0	0	539	711	
12	0	0	0	0	538	710	
13	0	0	0	0	537	711	
14	0	0	0	0	536	710	
15	0	0	0	0	535	711	
0	0	0	0	0	533	710	
1	0	0	0	0	531	710	
2	0	0	0	0	531	710	
3	0	0	0	0	530	710	
4	0	0	0	0	529	710	
5	0	0	0	0	529	710	
6	0	0	0	0	529	710	
7	0	0	0	0	529	710	
8	0	0	0	0	528	710	
9	0	0	0	0	530	710	
10	0	0	0	0	532	711	
11	0	0	0	0	531	710	
12	0	0	0	0	530	710	
13	0	0	0	0	530	710	
14	0	0	0	0	530	710	
15	0	0	0	0	527	710	
0	0	0	0	0	524	710	
1	0	0	0	0	525	710	
2	0	0	0	0	526	710	
3	0	0	0	0	527	710	
4	0	0	0	0	528	710	
5	0	0	0	0	528	710	
6	0	0	0	0	530	710	
7	0	0	0	0	531	710	
8	0	0	0	0	531	710	
9	0	0	0	0	529	710	
10	0	0	0	0	527	710	
11	0	0	0	0	526	711	
12	0	0	0	0	523	710	
13	0	0	0	0	519	710	
14	0	0	0	0	515	710	
15	0	0	0	0	511	710	
0	0	0	0	0	505	711	
1	0	0	0	0	502	710	
2	0	0	0	0	501	710	
3	0	0	0	0	502	710	
4	0	0	0	0	503	710	
5	0	0	0	0	502	710	
6	0	0	0	0	503	710	
7	0	0	0	0	503	710	
8	0	0	0	0	503	710	
9	0	0	0	0	504	710	
10	0	0	0	0	507	710	
11	0	0	0	0	509	710	
12	0	0	0	0	510	710	
13	0	0	0	0	508	710	
14	0	0	0	0	507	711	
15	0	0	0	0	506	710	
0	0	0	0	0	504	710	
1	0	0	0	0	504	710	
2	0	0	0	0	504	710	
3	0	0	0	0	504	710	
4	0	0	0	0	504	710	
5	0	0	0	0	504	710	
6	0	0	0	0	505	710	
7	0	0	0	0	505	710	
8	0	0	0	0	504	710	
9	0	0	0	0	504	710	
10	0	0	0	0	505	710	
11	0	0	0	0	505	710	
12	0	0	0	0	504	710	
13	0	0	0	0	503	710	
14	0	0	0	0	500	711	
15	0	0	0	0	498	710	
0	0	0	0	0	496	710	
1	0	0	0	0	494	710	
2	0	0	0	0	493	710	
3	0	0	0	0	492	710	
4	0	0	0	0	492	710	
5	0	0	0	0	490	710	
6	0	0	0	0	489	710	
7	0	0	0	0	489	710	
8	0	0	0	0	492	710	
9	0	0	0	0	493	710	
10	0	0	0	0	494	710	
11	0	0	0	0	495	710	
12	0	0	0	0	495	710	
13	0	0	0	0	494	710	
14	0	0	0	0	492	710	
15	0	0	0	0	492	711	
0	0	0	0	0	492	710	
1	0	0	0	0	493	710	
2	0	0	0	0	494	710	
3	0	0	0	0	494	710	
4	0	0	0	0	497	710	
5	0	0	0	0	497	710	
6	0	0	0	0	498	710	
7	0	0	0	0	499	710	
8	0	0	0	0	500	710	
9	0	0	0	0	500	710	
10	0	0	0	0	500	710	
11	0	0	0	0	501	711	
12	0	0	0	0	501	710	
13	0	0	0	0	499	710	
14	0	0	0	0	495	711	
15	0	0	0	0	493	711	
0	0	0	0	0	491	711	
1	0	0	0	0	491	710	
2	0	0	0	0	491	710	
3	0	0	0	0	492	710	
4	0	0	0	0	493	710	
5	0	0	0	0	495	710	
6	0	0	0	0	496	710	
7	0	0	0	0	495	710	
8	0	0	0	0	497	711	
9	0	0	0	0	499	710	
10	0	0	0	0	499	710	
11	0	0	0	0	500	710	
12	0	0	0	0	499	710	
13	0	0	0	0	499	711	
14	0	0	0	0	497	711	
15	0	0	0	0	495	710	
0	0	0	0	0	494	711	
1	0	0	0	0	491	710	
2	0	0	0	0	489	710	
3	0	0	0	0	487	710	
4	0	0	0	0	483	710	
5	0	0	0	0	480	710	
6	0	0	0	0	477	710	
7	0	0	0	0	475	710	
8	0	0	0	0	473	710	
9	0	0	0	0	472	710	
10	0	0	0	0	472	710	
11	0	0	0	0	473	710	
12	0	0	0	0	477	710	
13	0	0	0	0	481	711	
14	0	0	0	0	487	710	
15	0	0	0	0	492	710	
0	0	0	0	0	497	710	
1	0	0	0	0	504	710	
2	0	0	0	0	512	711	
3	0	0	0	0	521	710	
4	0	0	0	0	531	710	
5	0	0	0	0	541	710	
6	0	0	0	0	549	710	
7	0	0	0	0	556	710	
8	0	0	0	0	564	710	
9	0	0	0	0	575	710	
10	0	0	0	0	588	710	
11	0	0	0	0	604	710	
12	0	0	0	0	622	710	
13	0	0	0	0	640	710	
14	0	0	0	0	662	710	
15	0	0	0	0	684	710	
0	0	0	0	0	709	710	
1	0	0	0	0	735	710	
2	0	0	0	0	764	710	
3	0	0	0	0	795	709	
4	0	0	0	0	822	709	
5	0	0	0	0	841	710	
6	0	0	0	0	846	709	
7	0	0	0	0	840	710	
8	0	0	0	0	828	709	
9	0	0	0	0	812	709	
10	0	0	0	0	793	709	
11	0	0	0	0	769	709	
12	0	0	0	0	740	709	
13	0	0	0	0	711	709	
14	0	0	0	0	681	709	
15	0	0	0	0	653	710	
0	0	0	0	0	624	709	
1	0	0	0	0	597	710	
2	0	0	0	0	570	710	
3	0	0	0	0	543	710	
4	0	0	0	0	519	710	
5	0	0	0	0	499	710	
6	0	0	0	0	480	710	
7	0	0	0	0	465	710	
8	0	0	0	0	453	710	
9	0	0	0	0	442	710	
10	0	0	0	0	431	710	
11	0	0	0	0	420	710	
12	0	0	0	0	412	710	
13	0	0	0	0	407	710	
14	0	0	0	0	406	710	
15	0	0	0	0	406	710	
0	0	0	0	0	407	710	
1	0	0	0	0	408	710	
2	0	0	0	0	411	710	
3	0	0	0	0	413	710	
4	0	0	0	0	417	710	
5	0	0	0	0	420	710	
6	0	0	0	0	424	710	
7	0	0	0	0	428	710	
8	0	0	0	0	431	710	
9	0	0	0	0	436	710	
10	0	0	0	0	440	710	
11	0	0	0	0	440	710	
12	0	0	0	0	444	710	
13	0	0	0	0	447	710	
14	0	0	0	0	449	710	
15	0	0	0	0	451	710	
0	0	0	0	0	452	710	
1	0	0	0	0	454	710	
2	0	0	0	0	454	710	
3	0	0	0	0	452	710	
4	0	0	0	0	452	710	
5	0	0	0	0	452	710	
6	0	0	0	0	454	710	
7	0	0	0	0	454	710	
8	0	0	0	0	455	710	
9	0	0	0	0	456	710	
10	0	0	0	0	458	710	
11	0	0	0	0	459	710	
12	0	0	0	0	460	710	
13	0	0	0	0	460	710	
14	0	0	0	0	460	710	
15	0	0	0	0	460	710	
0	0	0	0	0	459	710	
1	0	0	0	0	458	710	
2	0	0	0	0	459	710	
3	0	0	0	0	462	710	
4	0	0	0	0	463	710	
5	0	0	0	0	464	710	
6	0	0	0	0	464	710	
7	0	0	0	0	463	710	
8	0	0	0	0	463	710	
9	0	0	0	0	462	710	
10	0	0	0	0	461	710	
11	0	0	0	0	461	710	
12	0	0	0	0	462	710	
13	0	0	0	0	462	710	
14	0	0	0	0	463	710	
15	0	0	0	0	466	710	
0	0	0	0	0	469	710	
1	0	0	0	0	470	710	
2	0	0	0	0	469	710	
3	0	0	0	0	470	710	
4	0	0	0	0	471	710	
5	0	0	0	0	473	710	
6	0	0	0	0	474	710	
7	0	0	0	0	475	710	
8	0	0	0	0	474	710	
9	0	0	0	0	474	710	
10	0	0	0	0	476	710	
11	0	0	0	0	477	710	
12	0	0	0	0	476	710	
13	0	0	0	0	476	710	
14	0	0	0	0	476	710	
15	0	0	0	0	477	710	
0	0	0	0	0	477	710	
1	0	0	0	0	478	710	
2	0	0	0	0	480	710	
3	0	0	0	0	481	710	
4	0	0	0	0	482	710	
5	0	0	0	0	482	710	
6	0	0	0	0	482	710	
7	0	0	0	0	484	710	
8	0	0	0	0	484	710	
9	0	0	0	0	484	710	
10	0	0	0	0	482	710	
11	0	0	0	0	483	710	
12	0	0	0	0	483	710	
13	0	0	0	0	482	710	
14	0	0	0	0	483	710	
15	0	0	0	0	484	710	
0	0	0	0	0	485	710	
1	0	0	0	0	487	710	
2	0	0	0	0	486	710	
3	0	0	0	0	487	711	
4	0	0	0	0	487	710	
5	0	0	0	0	488	710	
6	0	0	0	0	489	710	
7	0	0	0	0	487	710	
8	0	0	0	0	487	710	
9	0	0	0	0	487	710	
10	0	0	0	0	488	710	
11	0	0	0	0	487	710	
12	0	0	0	0	486	710	
13	0	0	0	0	486	710	
14	0	0	0	0	487	710	
15	0	0	0	0	487	710	
0	0	0	0	0	487	710	
1	0	0	0	0	490	710	
2	0	0	0	0	491	710	
3	0	0	0	0	492	710	
4	0	0	0	0	494	710	
5	0	0	0	0	494	710	
6	0	0	0	0	495	710	
7	0	0	0	0	496	710	
8	0	0	0	0	495	710	
9	0	0	0	0	495	710	
10	0	0	0	0	495	710	
11	0	0	0	0	496	710	
12	0	0	0	0	497	710	
13	0	0	0	0	497	710	
14	0	0	0	0	497	710	
15	0	0	0	0	499	710	
0	0	0	0	0	503	710	
1	0	0	0	0	506	710	
2	0	0	0	0	507	710	
3	0	0	0	0	508	710	
4	0	0	0	0	508	710	
5	0	0	0	0	507	710	
6	0	0	0	0	506	710	
7	0	0	0	0	505	710	
8	0	0	0	0	505	710	
9	0	0	0	0	504	710	
10	0	0	0	0	504	710	
11	0	0	0	0	506	710	
12	0	0	0	0	505	710	
13	0	0	0	0	504	710	
14	0	0	0	0	507	710	
15	0	0	0	0	507	710	
0	0	0	0	0	508	710	
1	0	0	0	0	510	710	
2	0	0	0	0	511	710	
3	0	0	0	0	512	710	
4	0	0	0	0	511	710	
5	0	0	0	0	512	710	
6	0	0	0	0	511	710	
7	0	0	0	0	511	710	
8	0	0	0	0	509	710	
9	0	0	0	0	505	710	
10	0	0	0	0	504	710	
11	0	0	0	0	504	710	
12	0	0	0	0	505	710	
13	0	0	0	0	505	710	
14	0	0	0	0	505	710	
15	0	0	0	0	507	710	
0	0	0	0	0	509	710	
1	0	0	0	0	511	710	
2	0	0	0	0	512	710	
3	0	0	0	0	512	710	
4	0	0	0	0	511	710	
5	0	0	0	0	511	710	
6	0	0	0	0	511	710	
7	0	0	0	0	512	710	
8	0	0	0	0	515	710	
9	0	0	0	0	517	710	
10	0	0	0	0	517	710	
11	0	0	0	0	518	710	
12	0	0	0	0	516	710	
13	0	0	0	0	514	709	
14	0	0	0	0	515	710	
15	0	0	0	0	515	710	
0	0	0	0	0	515	710	
1	0	0	0	0	518	710	
2	0	0	0	0	519	710	
3	0	0	0	0	520	710	
4	0	0	0	0	522	710	
5	0	0	0	0	524	710	
6	0	0	0	0	526	710	
7	0	0	0	0	526	710	
8	0	0	0	0	527	710	
9	0	0	0	0	526	710	
10	0	0	0	0	526	710	
11	0	0	0	0	526	710	
12	0	0	0	0	524	709	
13	0	0	0	0	523	710	
14	0	0	0	0	523	709	
15	0	0	0	0	524	710	
0	0	0	0	0	527	710	
1	0	0	0	0	529	709	
2	0	0	0	0	531	709	
3	0	0	0	0	534	709	
4	0	0	0	0	532	710	
5	0	0	0	0	531	710	
6	0	0	0	0	530	709	
7	0	0	0	0	529	710	
8	0	0	0	0	528	710	
9	0	0	0	0	528	709	
10	0	0	0	0	528	710	
11	0	0	0	0	530	709	
12	0	0	0	0	531	709	
13	0	0	0	0	531	710	
14	0	0	0	0	530	709	
15	0	0	0	0	528	709	
0	0	0	0	0	526	709	
1	0	0	0	0	525	709	
2	0	0	0	0	523	709	
3	0	0	0	0	522	709	
4	0	0	0	0	521	709	
5	0	0	0	0	520	709	
6	0	0	0	0	519	709	
7	0	0	0	0	519	709	
8	0	0	0	0	521	709	
9	0	0	0	0	519	709	
10	0	0	0	0	520	709	
11	0	0	0	0	520	710	
12	0	0	0	0	521	709	
13	0	0	0	0	523	709	
14	0	0	0	0	523	710	
15	0	0	0	0	523	709	
0	0	0	0	0	523	709	
1	0	0	0	0	522	709	
2	0	0	0	0	522	709	
3	0	0	0	0	523	709	
4	0	0	0	0	524	709	
5	0	0	0	0	526	709	
6	0	0	0	0	526	709	
7	0	0	0	0	526	709	
8	0	0	0	0	526	709	
9	0	0	0	0	524	709	
10	0	0	0	0	521	709	
11	0	0	0	0	516	709	
12	0	0	0	0	512	709	
13	0	0	0	0	508	709	
14	0	0	0	0	507	709	
15	0	0	0	0	507	709	
0	0	0	0	0	505	709	
1	0	0	0	0	504	709	
2	0	0	0	0	503	709	
3	0	0	0	0	500	709	
4	0	0	0	0	499	709	
5	0	0	0	0	499	709	
6	0	0	0	0	500	709	
7	0	0	0	0	500	709	
8	0	0	0	0	500	709	
9	0	0	0	0	502	709	
10	0	0	0	0	501	709	
11	0	0	0	0	498	709	
12	0	0	0	0	496	709	
13	0	0	0	0	494	709	
14	0	0	0	0	492	709	
15	0	0	0	0	491	709	
0	0	0	0	0	489	709	
1	0	0	0	0	489	708	
2	0	0	0	0	489	709	
3	0	0	0	0	489	709	
4	0	0	0	0	489	708	
5	0	0	0	0	490	709	
6	0	0	0	0	488	709	
7	0	0	0	0	486	709	
8	0	0	0	0	484	709	
9	0	0	0	0	481	709	
10	0	0	0	0	480	709	
11	0	0	0	0	479	709	
12	0	0	0	0	479	709	
13	0	0	0	0	479	709	
14	0	0	0	0	479	708	
15	0	0	0	0	476	709	
0	0	0	0	0	472	709	
1	0	0	0	0	467	708	
2	0	0	0	0	463	708	
3	0	0	0	0	460	708	
4	0	0	0	0	460	709	
5	0	0	0	0	460	708	
6	0	0	0	0	462	708	
7	0	0	0	0	464	709	
8	0	0	0	0	465	709	
9	0	0	0	0	466	709	
10	0	0	0	0	465	709	
11	0	0	0	0	463	709	
12	0	0	0	0	463	709	
13	0	0	0	0	462	709	
14	0	0	0	0	460	709	
15	0	0	0	0	459	708	
0	0	0	0	0	459	708	
1	0	0	0	0	460	709	
2	0	0	0	0	460	708	
3	0	0	0	0	461	708	
4	0	0	0	0	462	708	
5	0	0	0	0	462	708	
6	0	0	0	0	462	709	
7	0	0	0	0	460	709	
8	0	0	0	0	460	709	
9	0	0	0	0	460	708	
10	0	0	0	0	460	709	
11	0	0	0	0	460	709	
12	0	0	0	0	458	708	
13	0	0	0	0	456	709	
14	0	0	0	0	455	708	
15	0	0	0	0	454	709	
0	0	0	0	0	454	709	
1	0	0	0	0	455	708	
2	0	0	0	0	456	708	
3	0	0	0	0	459	709	
4	0	0	0	0	458	708	
5	0	0	0	0	456	709	
6	0	0	0	0	453	709	
7	0	0	0	0	455	708	
8	0	0	0	0	459	708	
9	0	0	0	0	459	708	
10	0	0	0	0	460	709	
11	0	0	0	0	460	708	
12	0	0	0	0	460	709	
13	0	0	0	0	460	708	
14	0	0	0	0	461	709	
15	0	0	0	0	463	709	
0	0	0	0	0	463	708	
1	0	0	0	0	464	708	
2	0	0	0	0	465	708	
3	0	0	0	0	465	708	
4	0	0	0	0	466	709	
5	0	0	0	0	467	708	
6	0	0	0	0	467	708	
7	0	0	0	0	468	708	
8	0	0	0	0	468	708	
9	0	0	0	0	468	709	
10	0	0	0	0	468	709	
11	0	0	0	0	468	708	
12	0	0	0	0	468	709	
13	0	0	0	0	468	708	
14	0	0	0	0	468	709	
15	0	0	0	0	469	709	
0	0	0	0	0	469	708	
1	0	0	0	0	468	708	
2	0	0	0	0	469	708	
3	0	0	0	0	470	708	
4	0	0	0	0	467	708	
5	0	0	0	0	466	708	
6	0	0	0	0	464	708	
7	0	0	0	0	463	708	
8	0	0	0	0	466	709	
9	0	0	0	0	467	708	
10	0	0	0	0	467	708	
11	0	0	0	0	467	708	
12	0	0	0	0	469	708	
13	0	0	0	0	471	709	
14	0	0	0	0	473	709	
15	0	0	0	0	475	709	
0	0	0	0	0	476	708	
1	0	0	0	0	478	708	
2	0	0	0	0	481	709	
3	0	0	0	0	482	709	
4	0	0	0	0	482	708	
5	0	0	0	0	482	708	
6	0	0	0	0	483	708	
7	0	0	0	0	485	708	
8	0	0	0	0	486	708	
9	0	0	0	0	487	708	
10	0	0	0	0	487	708	
11	0	0	0	0	487	708	
12	0	0	0	0	487	709	
13	0	0	0	0	487	708	
14	0	0	0	0	486	708	
15	0	0	0	0	486	708	
0	0	0	0	0	484	708	
1	0	0	0	0	481	709	
2	0	0	0	0	479	708	
3	0	0	0	0	478	708	
4	0	0	0	0	477	708	
5	0	0	0	0	477	708	
6	0	0	0	0	479	708	
7	0	0	0	0	480	708	
8	0	0	0	0	481	708	
9	0	0	0	0	482	708	
10	0	0	0	0	483	708	
11	0	0	0	0	482	709	
12	0	0	0	0	483	708	
13	0	0	0	0	483	708	
14	0	0	0	0	484	708	
15	0	0	0	0	484	708	
0	0	0	0	0	483	709	
1	0	0	0	0	482	708	
2	0	0	0	0	480	708	
3	0	0	0	0	478	708	
4	0	0	0	0	476	708	
5	0	0	0	0	475	708	
6	0	0	0	0	476	708	
7	0	0	0	0	478	708	
8	0	0	0	0	480	708	
9	0	0	0	0	481	708	
10	0	0	0	0	483	708	
11	0	0	0	0	486	708	
12	0	0	0	0	489	708	
13	0	0	0	0	491	708	
14	0	0	0	0	492	708	
15	0	0	0	0	492	708	
0	0	0	0	0	492	708	
1	0	0	0	0	490	708	
2	0	0	0	0	489	708	
3	0	0	0	0	488	708	
4	0	0	0	0	487	709	
5	0	0	0	0	484	708	
6	0	0	0	0	483	708	
7	0	0	0	0	481	708	
8	0	0	0	0	481	708	
9	0	0	0	0	482	708	
10	0	0	0	0	483	708	
11	0	0	0	0	485	708	
12	0	0	0	0	486	708	
13	0	0	0	0	488	708	
14	0	0	0	0	490	708	
15	0	0	0	0	491	708	
0	0	0	0	0	492	708	
1	0	0	0	0	492	708	
2	0	0	0	0	490	708	
3	0	0	0	0	489	708	
4	0	0	0	0	488	708	
5	0	0	0	0	489	708	
6	0	0	0	0	488	708	
7	0	0	0	0	489	708	
8	0	0	0	0	490	708	
9	0	0	0	0	490	708	
10	0	0	0	0	489	708	
11	0	0	0	0	489	708	
12	0	0	0	0	492	708	
13	0	0	0	0	494	708	
14	0	0	0	0	494	708	
15	0	0	0	0	495	708	
0	0	0	0	0	495	708	
1	0	0	0	0	495	708	
2	0	0	0	0	494	709	
3	0	0	0	0	494	708	
4	0	0	0	0	493	708	
5	0	0	0	0	491	708	
6	0	0	0	0	489	708	
7	0	0	0	0	490	708	
8	0	0	0	0	489	708	
9	0	0	0	0	489	708	
10	0	0	0	0	490	708	
11	0	0	0	0	492	708	
12	0	0	0	0	495	708	
13	0	0	0	0	496	708	
14	0	0	0	0	495	708	
15	0	0	0	0	495	708	
0	0	0	0	0	494	708	
1	0	0	0	0	491	708	
2	0	0	0	0	489	708	
3	0	0	0	0	489	708	
4	0	0	0	0	489	708	
5	0	0	0	0	488	708	
6	0	0	0	0	488	708	
7	0	0	0	0	488	708	
8	0	0	0	0	489	708	
9	0	0	0	0	492	708	
10	0	0	0	0	495	708	
11	0	0	0	0	497	708	
12	0	0	0	0	498	708	
13	0	0	0	0	499	708	
14	0	0	0	0	499	708	
15	0	0	0	0	497	708	
0	0	0	0	0	497	708	
1	0	0	0	0	496	708	
2	0	0	0	0	492	708	
3	0	0	0	0	491	708	
4	0	0	0	0	491	708	
5	0	0	0	0	489	708	
6	0	0	0	0	489	708	
7	0	0	0	0	489	708	
8	0	0	0	0	490	708	
9	0	0	0	0	491	708	
10	0	0	0	0	491	708	
11	0	0	0	0	492	708	
12	0	0	0	0	494	708	
13	0	0	0	0	497	708	
14	0	0	0	0	498	708	
15	0	0	0	0	500	708	
0	0	0	0	0	500	708	
1	0	0	0	0	500	708	
2	0	0	0	0	502	708	
3	0	0	0	0	503	708	
4	0	0	0	0	503	708	
5	0	0	0	0	504	708	
6	0	0	0	0	506	708	
7	0	0	0	0	508	708	
8	0	0	0	0	507	708	
9	0	0	0	0	505	708	
10	0	0	0	0	504	708	
11	0	0	0	0	505	708	
12	0	0	0	0	505	708	
13	0	0	0	0	505	707	
14	0	0	0	0	507	708	
15	0	0	0	0	509	708	
0	0	0	0	0	510	708	
1	0	0	0	0	512	708	
2	0	0	0	0	513	708	
3	0	0	0	0	515	708	
4	0	0	0	0	516	708	
5	0	0	0	0	516	708	
6	0	0	0	0	515	708	
7	0	0	0	0	512	708	
8	0	0	0	0	511	708	
9	0	0	0	0	510	708	
10	0	0	0	0	509	708	
11	0	0	0	0	509	708	
12	0	0	0	0	508	707	
13	0	0	0	0	509	708	
14	0	0	0	0	508	708	
15	0	0	0	0	510	708	
0	0	0	0	0	512	708	
1	0	0	0	0	515	708	
2	0	0	0	0	517	708	
3	0	0	0	0	518	708	
4	0	0	0	0	518	708	
5	0	0	0	0	518	708	
6	0	0	0	0	517	708	
7	0	0	0	0	517	708	
8	0	0	0	0	515	708	
9	0	0	0	0	515	708	
10	0	0	0	0	514	708	
11	0	0	0	0	515	708	
12	0	0	0	0	513	708	
13	0	0	0	0	512	708	
14	0	0	0	0	512	708	
15	0	0	0	0	514	708	
0	0	0	0	0	516	708	
1	0	0	0	0	518	708	
2	0	0	0	0	519	708	
3	0	0	0	0	520	708	
4	0	0	0	0	519	708	
5	0	0	0	0	519	708	
6	0	0	0	0	517	708	
7	0	0	0	0	515	708	
8	0	0	0	0	515	708	
9	0	0	0	0	517	708	
10	0	0	0	0	518	708	
11	0	0	0	0	519	708	
12	0	0	0	0	520	708	
13	0	0	0	0	518	708	
14	0	0	0	0	514	708	
15	0	0	0	0	510	708	
0	0	0	0	0	507	708	
1	0	0	0	0	504	708	
2	0	0	0	0	502	708	
3	0	0	0	0	500	708	
4	0	0	0	0	496	708	
5	0	0	0	0	493	708	
6	0	0	0	0	491	708	
7	0	0	0	0	491	708	
8	0	0	0	0	489	708	
9	0	0	0	0	488	707	
10	0	0	0	0	487	707	
11	0	0	0	0	487	708	
12	0	0	0	0	486	708	
13	0	0	0	0	487	708	
14	0	0	0	0	487	707	
15	0	0	0	0	487	708	
0	0	0	0	0	486	707	
1	0	0	0	0	486	708	
2	0	0	0	0	487	708	
3	0	0	0	0	488	707	
4	0	0	0	0	489	708	
5	0	0	0	0	489	708	
6	0	0	0	0	488	708	
7	0	0	0	0	487	708	
8	0	0	0	0	484	707	
9	0	0	0	0	485	708	
10	0	0	0	0	485	708	
11	0	0	0	0	484	707	
12	0	0	0	0	485	708	
13	0	0	0	0	484	708	
14	0	0	0	0	483	708	
15	0	0	0	0	484	708	
0	0	0	0	0	483	708	
1	0	0	0	0	483	708	
2	0	0	0	0	485	708	
3	0	0	0	0	486	708	
4	0	0	0	0	484	708	
5	0	0	0	0	485	708	
6	0	0	0	0	485	708	
7	0	0	0	0	484	708	
8	0	0	0	0	483	708	
9	0	0	0	0	483	708	
10	0	0	0	0	482	708	
11	0	0	0	0	480	708	
12	0	0	0	0	480	707	
13	0	0	0	0	480	708	
14	0	0	0	0	481	708	
15	0	0	0	0	480	708	
0	0	0	0	0	481	707	
1	0	0	0	0	481	707	
2	0	0	0	0	483	708	
3	0	0	0	0	485	708	
4	0	0	0	0	487	708	
5	0	0	0	0	487	708	
6	0	0	0	0	488	708	
7	0	0	0	0	487	708	
8	0	0	0	0	486	708	
9	0	0	0	0	484	708	
10	0	0	0	0	483	708	
11	0	0	0	0	483	708	
12	0	0	0	0	483	708	
13	0	0	0	0	481	708	
14	0	0	0	0	480	708	
15	0	0	0	0	482	708	
0	0	0	0	0	482	707	
1	0	0	0	0	482	708	
2	0	0	0	0	482	708	
3	0	0	0	0	483	708	
4	0	0	0	0	484	708	
5	0	0	0	0	484	708	
6	0	0	0	0	485	708	
7	0	0	0	0	485	708	
8	0	0	0	0	486	708	
9	0	0	0	0	486	708	
10	0	0	0	0	487	708	
11	0	0	0	0	489	707	
12	0	0	0	0	491	708	
13	0	0	0	0	492	708	
14	0	0	0	0	491	708	
15	0	0	0	0	489	708	
0	0	0	0	0	489	708	
1	0	0	0	0	489	708	
2	0	0	0	0	489	708	
3	0	0	0	0	491	708	
4	0	0	0	0	492	707	
5	0	0	0	0	494	708	
6	0	0	0	0	495	708	
7	0	0	0	0	493	707	
8	0	0	0	0	493	708	
9	0	0	0	0	492	708	
10	0	0	0	0	488	708	
11	0	0	0	0	482	708	
12	0	0	0	0	475	708	
13	0	0	0	0	467	708	
14	0	0	0	0	461	708	
15	0	0	0	0	457	708	
0	0	0	0	0	453	708	
1	0	0	0	0	453	708	
2	0	0	0	0	455	708	
3	0	0	0	0	457	707	
4	0	0	0	0	464	708	
5	0	0	0	0	473	708	
6	0	0	0	0	484	708	
7	0	0	0	0	495	708	
8	0	0	0	0	504	707	
9	0	0	0	0	514	708	
10	0	0	0	0	524	708	
11	0	0	0	0	535	708	
12	0	0	0	0	543	707	
13	0	0	0	0	551	707	
14	0	0	0	0	557	708	
15	0	0	0	0	566	707	
0	0	0	0	0	575	707	
1	0	0	0	0	589	707	
2	0	0	0	0	606	707	
3	0	0	0	0	624	707	
4	0	0	0	0	644	707	
5	0	0	0	0	666	707	
6	0	0	0	0	689	707	
7	0	0	0	0	713	707	
8	0	0	0	0	742	707	
9	0	0	0	0	772	707	
10	0	0	0	0	802	707	
11	0	0	0	0	828	707	
12	0	0	0	0	840	707	
13	0	0	0	0	841	707	
14	0	0	0	0	832	707	
15	0	0	0	0	818	707	
0	0	0	0	0	799	707	
1	0	0	0	0	777	707	
2	0	0	0	0	753	707	
3	0	0	0	0	722	707	
4	0	0	0	0	693	707	
5	0	0	0	0	667	707	
6	0	0	0	0	640	706	
7	0	0	0	0	614	707	
8	0	0	0	0	585	707	
9	0	0	0	0	559	707	
10	0	0	0	0	535	707	
11	0	0	0	0	513	707	
12	0	0	0	0	497	707	
13	0	0	0	0	483	707	
14	0	0	0	0	469	707	
15	0	0	0	0	455	707	
0	0	0	0	0	444	707	
1	0	0	0	0	432	707	
2	0	0	0	0	419	707	
3	0	0	0	0	411	707	
4	0	0	0	0	406	707	
5	0	0	0	0	403	707	
6	0	0	0	0	403	707	
7	0	0	0	0	404	707	
8	0	0	0	0	408	707	
9	0	0	0	0	414	707	
10	0	0	0	0	418	707	
11	0	0	0	0	422	708	
12	0	0	0	0	423	707	
13	0	0	0	0	428	707	
14	0	0	0	0	434	707	
15	0	0	0	0	438	707	
0	0	0	0	0	441	707	
1	0	0	0	0	443	707	
2	0	0	0	0	443	707	
3	0	0	0	0	446	707	
4	0	0	0	0	448	707	
5	0	0	0	0	451	707	
6	0	0	0	0	452	707	
7	0	0	0	0	454	707	
8	0	0	0	0	454	707	
9	0	0	0	0	451	707	
10	0	0	0	0	451	707	
11	0	0	0	0	451	707	
12	0	0	0	0	450	707	
13	0	0	0	0	450	707	
14	0	0	0	0	448	707	
15	0	0	0	0	447	708	
0	0	0	0	0	447	707	
1	0	0	0	0	449	707	
2	0	0	0	0	453	707	
3	0	0	0	0	456	707	
4	0	0	0	0	459	707	
5	0	0	0	0	462	707	
6	0	0	0	0	462	707	
7	0	0	0	0	463	707	
8	0	0	0	0	465	707	
9	0	0	0	0	467	707	
10	0	0	0	0	469	707	
11	0	0	0	0	471	707	
12	0	0	0	0	472	708	
13	0	0	0	0	472	707	
14	0	0	0	0	472	708	
15	0	0	0	0	472	707	
0	0	0	0	0	471	708	
1	0	0	0	0	472	707	
2	0	0	0	0	472	707	
3	0	0	0	0	473	707	
4	0	0	0	0	475	707	
5	0	0	0	0	476	707	
6	0	0	0	0	477	707	
7	0	0	0	0	477	707	
8	0	0	0	0	480	707	
9	0	0	0	0	482	707	
10	0	0	0	0	483	707	
11	0	0	0	0	486	707	
12	0	0	0	0	487	707	
13	0	0	0	0	487	708	
14	0	0	0	0	485	708	
15	0	0	0	0	483	707	
0	0	0	0	0	482	707	
1	0	0	0	0	481	707	
2	0	0	0	0	482	707	
3	0	0	0	0	483	707	
4	0	0	0	0	485	707	
5	0	0	0	0	486	707	
6	0	0	0	0	486	707	
7	0	0	0	0	486	707	
8	0	0	0	0	487	707	
9	0	0	0	0	487	707	
10	0	0	0	0	487	707	
11	0	0	0	0	487	707	
12	0	0	0	0	487	707	
13	0	0	0	0	488	707	
14	0	0	0	0	488	707	
15	0	0	0	0	487	708	
0	0	0	0	0	487	707	
1	0	0	0	0	488	707	
2	0	0	0	0	489	707	
3	0	0	0	0	489	707	
4	0	0	0	0	488	707	
5	0	0	0	0	490	707	
6	0	0	0	0	491	707	
7	0	0	0	0	493	707	
8	0	0	0	0	493	707	
9	0	0	0	0	494	707	
10	0	0	0	0	496	707	
11	0	0	0	0	498	707	
12	0	0	0	0	499	707	
13	0	0	0	0	499	708	
14	0	0	0	0	498	707	
15	0	0	0	0	497	707	
0	0	0	0	0	496	707	
1	0	0	0	0	496	707	
2	0	0	0	0	496	707	
3	0	0	0	0	496	707	
4	0	0	0	0	497	707	
5	0	0	0	0	499	707	
6	0	0	0	0	500	707	
7	0	0	0	0	502	707	
8	0	0	0	0	504	707	
9	0	0	0	0	505	707	
10	0	0	0	0	506	707	
11	0	0	0	0	509	707	
12	0	0	0	0	512	707	
13	0	0	0	0	516	707	
14	0	0	0	0	518	707	
15	0	0	0	0	518	707	
0	0	0	0	0	519	707	
1	0	0	0	0	519	707	
2	0	0	0	0	518	707	
3	0	0	0	0	516	707	
4	0	0	0	0	515	708	
5	0	0	0	0	515	707	
6	0	0	0	0	514	707	
7	0	0	0	0	515	707	
8	0	0	0	0	514	707	
9	0	0	0	0	514	707	
10	0	0	0	0	514	707	
11	0	0	0	0	514	707	
12	0	0	0	0	513	707	
13	0	0	0	0	513	707	
14	0	0	0	0	513	707	
15	0	0	0	0	513	707	
0	0	0	0	0	513	707	
1	0	0	0	0	514	707	
2	0	0	0	0	515	707	
3	0	0	0	0	516	707	
4	0	0	0	0	518	707	
5	0	0	0	0	520	707	
6	0	0	0	0	519	707	
7	0	0	0	0	518	707	
8	0	0	0	0	518	707	
9	0	0	0	0	518	707	
10	0	0	0	0	519	707	
11	0	0	0	0	520	707	
12	0	0	0	0	521	707	
13	0	0	0	0	523	707	
14	0	0	0	0	526	707	
15	0	0	0	0	528	707	
0	0	0	0	0	529	707	
1	0	0	0	0	530	707	
2	0	0	0	0	530	707	
3	0	0	0	0	530	707	
4	0	0	0	0	530	707	
5	0	0	0	0	531	707	
6	0	0	0	0	532	707	
7	0	0	0	0	534	707	
8	0	0	0	0	536	707	
9	0	0	0	0	536	707	
10	0	0	0	0	536	707	
11	0	0	0	0	537	707	
12	0	0	0	0	538	707	
13	0	0	0	0	538	707	
14	0	0	0	0	537	707	
15	0	0	0	0	537	707	
0	0	0	0	0	536	707	
1	0	0	0	0	537	707	
2	0	0	0	0	538	707	
3	0	0	0	0	540	707	
4	0	0	0	0	542	707	
5	0	0	0	0	542	707	
6	0	0	0	0	543	706	
7	0	0	0	0	543	707	
8	0	0	0	0	542	707	
9	0	0	0	0	541	707	
10	0	0	0	0	541	707	
11	0	0	0	0	541	707	
12	0	0	0	0	542	707	
13	0	0	0	0	542	707	
14	0	0	0	0	544	707	
15	0	0	0	0	546	707	
0	0	0	0	0	549	707	
1	0	0	0	0	551	707	
2	0	0	0	0	551	707	
3	0	0	0	0	551	707	
4	0	0	0	0	551	707	
5	0	0	0	0	551	707	
6	0	0	0	0	552	707	
7	0	0	0	0	552	707	
8	0	0	0	0	551	707	
9	0	0	0	0	551	706	
10	0	0	0	0	552	706	
11	0	0	0	0	552	707	
12	0	0	0	0	552	706	
13	0	0	0	0	552	706	
14	0	0	0	0	552	706	
15	0	0	0	0	554	707	
0	0	0	0	0	554	707	
1	0	0	0	0	553	707	
2	0	0	0	0	552	707	
3	0	0	0	0	552	707	
4	0	0	0	0	552	707	
5	0	0	0	0	550	707	
6	0	0	0	0	548	707	
7	0	0	0	0	548	706	
8	0	0	0	0	547	706	
9	0	0	0	0	547	707	
10	0	0	0	0	545	706	
11	0	0	0	0	545	707	
12	0	0	0	0	544	706	
13	0	0	0	0	544	706	
14	0	0	0	0	546	706	
15	0	0	0	0	547	706	
0	0	0	0	0	549	706	
1	0	0	0	0	551	707	
2	0	0	0	0	551	706	
3	0	0	0	0	551	707	
4	0	0	0	0	551	707	
5	0	0	0	0	551	706	
6	0	0	0	0	549	706	
7	0	0	0	0	545	706	
8	0	0	0	0	543	707	
9	0	0	0	0	541	706	
10	0	0	0	0	541	706	
11	0	0	0	0	542	707	
12	0	0	0	0	542	706	
13	0	0	0	0	542	706	
14	0	0	0	0	542	706	
15	0	0	0	0	541	706	
0	0	0	0	0	541	706	
1	0	0	0	0	541	706	
2	0	0	0	0	540	706	
3	0	0	0	0	538	706	
4	0	0	0	0	536	706	
5	0	0	0	0	535	706	
6	0	0	0	0	534	706	
7	0	0	0	0	534	706	
8	0	0	0	0	534	706	
9	0	0	0	0	532	706	
10	0	0	0	0	530	706	
11	0	0	0	0	529	706	
12	0	0	0	0	529	706	
13	0	0	0	0	529	706	
14	0	0	0	0	527	706	
15	0	0	0	0	528	706	
0	0	0	0	0	528	706	
1	0	0	0	0	528	706	
2	0	0	0	0	527	706	
3	0	0	0	0	526	706	
4	0	0	0	0	524	706	
5	0	0	0	0	523	706	
6	0	0	0	0	521	706	
7	0	0	0	0	519	706	
8	0	0	0	0	516	706	
9	0	0	0	0	512	706	
10	0	0	0	0	509	706	
11	0	0	0	0	508	706	
12	0	0	0	0	505	706	
13	0	0	0	0	503	706	
14	0	0	0	0	501	706	
15	0	0	0	0	500	706	
0	0	0	0	0	501	706	
1	0	0	0	0	500	706	
2	0	0	0	0	500	706	
3	0	0	0	0	501	706	
4	0	0	0	0	503	706	
5	0	0	0	0	504	706	
6	0	0	0	0	507	706	
7	0	0	0	0	506	706	
8	0	0	0	0	505	706	
9	0	0	0	0	502	706	
10	0	0	0	0	498	706	
11	0	0	0	0	497	706	
12	0	0	0	0	496	705	
13	0	0	0	0	493	706	
14	0	0	0	0	491	706	
15	0	0	0	0	490	706	
0	0	0	0	0	489	706	
1	0	0	0	0	489	706	
2	0	0	0	0	490	706	
3	0	0	0	0	490	706	
4	0	0	0	0	490	706	
5	0	0	0	0	489	706	
6	0	0	0	0	487	706	
7	0	0	0	0	485	706	
8	0	0	0	0	484	706	
9	0	0	0	0	483	706	
10	0	0	0	0	482	706	
11	0	0	0	0	481	706	
12	0	0	0	0	480	706	
13	0	0	0	0	480	706	
14	0	0	0	0	480	706	
15	0	0	0	0	481	706	
0	0	0	0	0	480	706	
1	0	0	0	0	477	706	
2	0	0	0	0	478	706	
3	0	0	0	0	480	706	
4	0	0	0	0	481	706	
5	0	0	0	0	482	706	
6	0	0	0	0	484	706	
7	0	0	0	0	486	706	
8	0	0	0	0	487	706	
9	0	0	0	0	486	706	
10	0	0	0	0	485	706	
11	0	0	0	0	487	706	
12	0	0	0	0	487	706	
13	0	0	0	0	487	706	
14	0	0	0	0	487	706	
15	0	0	0	0	487	706	
0	0	0	0	0	488	706	
1	0	0	0	0	489	706	
2	0	0	0	0	490	706	
3	0	0	0	0	488	706	
4	0	0	0	0	488	706	
5	0	0	0	0	488	706	
6	0	0	0	0	488	706	
7	0	0	0	0	488	706	
8	0	0	0	0	487	706	
9	0	0	0	0	487	706	
10	0	0	0	0	486	706	
11	0	0	0	0	487	706	
12	0	0	0	0	488	706	
13	0	0	0	0	489	706	
14	0	0	0	0	491	706	
15	0	0	0	0	492	706	
0	0	0	0	0	491	706	
1	0	0	0	0	491	706	
2	0	0	0	0	492	706	
3	0	0	0	0	493	706	
4	0	0	0	0	494	706	
5	0	0	0	0	495	706	
6	0	0	0	0	496	706	
7	0	0	0	0	495	706	
8	0	0	0	0	493	706	
9	0	0	0	0	492	706	
10	0	0	0	0	492	706	
11	0	0	0	0	491	706	
12	0	0	0	0	489	706	
13	0	0	0	0	489	706	
14	0	0	0	0	488	706	
15	0	0	0	0	488	706	
0	0	0	0	0	489	706	
1	0	0	0	0	491	706	
2	0	0	0	0	490	706	
3	0	0	0	0	491	706	
4	0	0	0	0	492	706	
5	0	0	0	0	493	706	
6	0	0	0	0	494	706	
7	0	0	0	0	496	706	
8	0	0	0	0	498	706	
9	0	0	0	0	499	706	
10	0	0	0	0	499	706	
11	0	0	0	0	499	706	
12	0	0	0	0	499	706	
13	0	0	0	0	501	706	
14	0	0	0	0	501	706	
15	0	0	0	0	499	706	
0	0	0	0	0	496	706	
1	0	0	0	0	494	706	
2	0	0	0	0	492	706	
3	0	0	0	0	492	706	
4	0	0	0	0	492	706	
5	0	0	0	0	493	706	
6	0	0	0	0	494	706	
7	0	0	0	0	495	706	
8	0	0	0	0	496	706	
9	0	0	0	0	496	706	
10	0	0	0	0	496	706	
11	0	0	0	0	496	706	
12	0	0	0	0	496	706	
13	0	0	0	0	497	706	
14	0	0	0	0	499	706	
15	0	0	0	0	500	706	
0	0	0	0	0	500	706	
1	0	0	0	0	499	706	
2	0	0	0	0	499	706	
3	0	0	0	0	499	705	
4	0	0	0	0	500	706	
5	0	0	0	0	502	706	
6	0	0	0	0	504	706	
7	0	0	0	0	505	706	
8	0	0	0	0	507	706	
9	0	0	0	0	507	706	
10	0	0	0	0	507	706	
11	0	0	0	0	507	706	
12	0	0	0	0	505	706	
13	0	0	0	0	505	706	
14	0	0	0	0	504	706	
15	0	0	0	0	504	706	
0	0	0	0	0	504	706	
1	0	0	0	0	504	706	
2	0	0	0	0	507	706	
3	0	0	0	0	507	706	
4	0	0	0	0	507	706	
5	0	0	0	0	507	706	
6	0	0	0	0	508	706	
7	0	0	0	0	509	706	
8	0	0	0	0	511	706	
9	0	0	0	0	512	706	
10	0	0	0	0	513	706	
11	0	0	0	0	511	706	
12	0	0	0	0	510	706	
13	0	0	0	0	508	706	
14	0	0	0	0	507	706	
15	0	0	0	0	506	706	
0	0	0	0	0	507	705	
1	0	0	0	0	509	705	
2	0	0	0	0	511	706	
3	0	0	0	0	512	706	
4	0	0	0	0	512	706	
5	0	0	0	0	511	705	
6	0	0	0	0	511	706	
7	0	0	0	0	510	706	
8	0	0	0	0	511	706	
9	0	0	0	0	512	706	
10	0	0	0	0	512	706	
11	0	0	0	0	513	706	
12	0	0	0	0	512	706	
13	0	0	0	0	512	706	
14	0	0	0	0	510	706	
15	0	0	0	0	509	706	
0	0	0	0	0	508	706	
1	0	0	0	0	507	706	
2	0	0	0	0	507	705	
3	0	0	0	0	509	705	
4	0	0	0	0	511	705	
5	0	0	0	0	512	706	
6	0	0	0	0	512	705	
7	0	0	0	0	511	705	
8	0	0	0	0	511	705	
9	0	0	0	0	511	705	
10	0	0	0	0	511	706	
11	0	0	0	0	511	706	
12	0	0	0	0	510	705	
13	0	0	0	0	510	706	
14	0	0	0	0	510	705	
15	0	0	0	0	510	705	
0	0	0	0	0	510	705	
1	0	0	0	0	510	705	
2	0	0	0	0	510	705	
3	0	0	0	0	511	705	
4	0	0	0	0	513	706	
5	0	0	0	0	514	705	
6	0	0	0	0	515	705	
7	0	0	0	0	516	705	
8	0	0	0	0	517	705	
9	0	0	0	0	518	706	
10	0	0	0	0	518	705	
11	0	0	0	0	518	705	
12	0	0	0	0	518	705	
13	0	0	0	0	517	705	
14	0	0	0	0	517	706	
15	0	0	0	0	516	705	
0	0	0	0	0	516	705	
1	0	0	0	0	515	705	
2	0	0	0	0	512	705	
3	0	0	0	0	512	705	
4	0	0	0	0	512	705	
5	0	0	0	0	512	705	
6	0	0	0	0	511	705	
7	0	0	0	0	510	705	
8	0	0	0	0	511	705	
9	0	0	0	0	512	705	
10	0	0	0	0	513	705	
11	0	0	0	0	514	705	
12	0	0	0	0	513	705	
13	0	0	0	0	515	705	
14	0	0	0	0	514	705	
15	0	0	0	0	513	705	
0	0	0	0	0	513	705	
1	0	0	0	0	513	705	
2	0	0	0	0	514	705	
3	0	0	0	0	515	705	
4	0	0	0	0	517	705	
5	0	0	0	0	519	705	
6	0	0	0	0	521	705	
7	0	0	0	0	523	705	
8	0	0	0	0	526	705	
9	0	0	0	0	527	705	
10	0	0	0	0	527	705	
11	0	0	0	0	526	705	
12	0	0	0	0	526	705	
13	0	0	0	0	525	705	
14	0	0	0	0	524	705	
15	0	0	0	0	523	705	
0	0	0	0	0	521	705	
1	0	0	0	0	520	705	
2	0	0	0	0	520	705	
3	0	0	0	0	522	705	
4	0	0	0	0	523	705	
5	0	0	0	0	524	705	
6	0	0	0	0	525	705	
7	0	0	0	0	527	705	
8	0	0	0	0	527	705	
9	0	0	0	0	528	705	
10	0	0	0	0	530	705	
11	0	0	0	0	532	705	
12	0	0	0	0	534	705	
13	0	0	0	0	535	705	
14	0	0	0	0	533	705	
15	0	0	0	0	531	705	
0	0	0	0	0	530	705	
1	0	0	0	0	529	705	
2	0	0	0	0	528	705	
3	0	0	0	0	528	705	
4	0	0	0	0	528	705	
5	0	0	0	0	529	705	
6	0	0	0	0	530	705	
7	0	0	0	0	531	705	
8	0	0	0	0	533	705	
9	0	0	0	0	535	705	
10	0	0	0	0	536	705	
11	0	0	0	0	536	705	
12	0	0	0	0	535	705	
13	0	0	0	0	536	705	
14	0	0	0	0	536	705	
15	0	0	0	0	535	705	
0	0	0	0	0	534	705	
1	0	0	0	0	534	705	
2	0	0	0	0	533	705	
3	0	0	0	0	532	704	
4	0	0	0	0	531	705	
5	0	0	0	0	531	705	
6	0	0	0	0	531	705	
7	0	0	0	0	530	705	
8	0	0	0	0	530	705	
9	0	0	0	0	530	705	
10	0	0	0	0	530	705	
11	0	0	0	0	531	705	
12	0	0	0	0	532	705	
13	0	0	0	0	532	705	
14	0	0	0	0	535	705	
15	0	0	0	0	537	705	
0	0	0	0	0	536	705	
1	0	0	0	0	535	705	
2	0	0	0	0	532	705	
3	0	0	0	0	529	705	
4	0	0	0	0	527	705	
5	0	0	0	0	523	705	
6	0	0	0	0	519	705	
7	0	0	0	0	516	704	
8	0	0	0	0	515	705	
9	0	0	0	0	514	704	
10	0	0	0	0	514	705	
11	0	0	0	0	514	704	
12	0	0	0	0	514	704	
13	0	0	0	0	513	705	
14	0	0	0	0	513	705	
15	0	0	0	0	514	705	
0	0	0	0	0	515	705	
1	0	0	0	0	515	705	
2	0	0	0	0	515	705	
3	0	0	0	0	514	705	
4	0	0	0	0	513	704	
5	0	0	0	0	514	705	
6	0	0	0	0	515	704	
7	0	0	0	0	519	704	
8	0	0	0	0	520	704	
9	0	0	0	0	520	704	
10	0	0	0	0	517	704	
11	0	0	0	0	515	704	
12	0	0	0	0	513	705	
13	0	0	0	0	512	704	
14	0	0	0	0	510	705	
15	0	0	0	0	507	704	
0	0	0	0	0	503	704	
1	0	0	0	0	500	705	
2	0	0	0	0	500	705	
3	0	0	0	0	499	705	
4	0	0	0	0	497	705	
5	0	0	0	0	496	705	
6	0	0	0	0	495	704	
7	0	0	0	0	495	705	
8	0	0	0	0	496	705	
9	0	0	0	0	498	704	
10	0	0	0	0	499	704	
11	0	0	0	0	498	705	
12	0	0	0	0	499	704	
13	0	0	0	0	500	705	
14	0	0	0	0	501	705	
15	0	0	0	0	502	704	
0	0	0	0	0	501	705	
1	0	0	0	0	501	705	
2	0	0	0	0	501	705	
3	0	0	0	0	500	705	
4	0	0	0	0	502	705	
5	0	0	0	0	502	705	
6	0	0	0	0	502	704	
7	0	0	0	0	503	704	
8	0	0	0	0	505	704	
9	0	0	0	0	506	704	
10	0	0	0	0	507	705	
11	0	0	0	0	508	705	
12	0	0	0	0	510	704	
13	0	0	0	0	511	704	
14	0	0	0	0	511	705	
15	0	0	0	0	510	705	
0	0	0	0	0	508	705	
1	0	0	0	0	504	705	
2	0	0	0	0	503	705	
3	0	0	0	0	504	704	
4	0	0	0	0	504	705	
5	0	0	0	0	504	705	
6	0	0	0	0	503	705	
7	0	0	0	0	502	705	
8	0	0	0	0	502	705	
9	0	0	0	0	503	705	
10	0	0	0	0	505	705	
11	0	0	0	0	506	704	
12	0	0	0	0	506	705	
13	0	0	0	0	506	704	
14	0	0	0	0	508	705	
15	0	0	0	0	509	704	
0	0	0	0	0	509	704	
1	0	0	0	0	509	704	
2	0	0	0	0	509	704	
3	0	0	0	0	511	705	
4	0	0	0	0	512	704	
5	0	0	0	0	513	705	
6	0	0	0	0	513	705	
7	0	0	0	0	512	704	
8	0	0	0	0	512	705	
9	0	0	0	0	510	704	
10	0	0	0	0	508	704	
11	0	0	0	0	504	704	
12	0	0	0	0	499	704	
13	0	0	0	0	497	704	
14	0	0	0	0	494	704	
15	0	0	0	0	491	704	
0	0	0	0	0	488	704	
1	0	0	0	0	485	704	
2	0	0	0	0	483	705	
3	0	0	0	0	483	704	
4	0	0	0	0	484	704	
5	0	0	0	0	486	705	
6	0	0	0	0	489	704	
7	0	0	0	0	494	705	
8	0	0	0	0	500	704	
9	0	0	0	0	507	704	
10	0	0	0	0	513	704	
11	0	0	0	0	523	704	
12	0	0	0	0	531	704	
13	0	0	0	0	540	704	
14	0	0	0	0	551	704	
15	0	0	0	0	560	704	
0	0	0	0	0	568	704	
1	0	0	0	0	578	704	
2	0	0	0	0	589	704	
3	0	0	0	0	605	704	
4	0	0	0	0	623	704	
5	0	0	0	0	644	704	
6	0	0	0	0	664	704	
7	0	0	0	0	685	704	
8	0	0	0	0	706	704	
9	0	0	0	0	729	704	
10	0	0	0	0	753	703	
11	0	0	0	0	782	704	
12	0	0	0	0	809	704	
13	0	0	0	0	834	703	
14	0	0	0	0	846	703	
15	0	0	0	0	847	703	
0	0	0	0	0	840	703	
1	0	0	0	0	827	703	
2	0	0	0	0	808	703	
3	0	0	0	0	787	703	
4	0	0	0	0	762	703	
5	0	0	0	0	729	703	
6	0	0	0	0	700	703	
7	0	0	0	0	672	704	
8	0	0	0	0	645	703	
9	0	0	0	0	616	703	
10	0	0	0	0	591	704	
11	0	0	0	0	567	703	
12	0	0	0	0	545	703	
13	0	0	0	0	525	703	
14	0	0	0	0	506	703	
15	0	0	0	0	492	704	
0	0	0	0	0	478	704	
1	0	0	0	0	468	704	
2	0	0	0	0	458	704	
3	0	0	0	0	447	704	
4	0	0	0	0	438	704	
5	0	0	0	0	430	704	
6	0	0	0	0	425	704	
7	0	0	0	0	423	704	
8	0	0	0	0	420	704	
9	0	0	0	0	420	704	
10	0	0	0	0	421	704	
11	0	0	0	0	423	704	
12	0	0	0	0	425	704	
13	0	0	0	0	427	704	
14	0	0	0	0	430	704	
15	0	0	0	0	434	704	
0	0	0	0	0	439	704	
1	0	0	0	0	444	704	
2	0	0	0	0	450	704	
3	0	0	0	0	455	704	
4	0	0	0	0	461	704	
5	0	0	0	0	466	704	
6	0	0	0	0	471	704	
7	0	0	0	0	476	704	
8	0	0	0	0	478	704	
9	0	0	0	0	478	704	
10	0	0	0	0	477	704	
11	0	0	0	0	476	704	
12	0	0	0	0	475	704	
13	0	0	0	0	473	704	
14	0	0	0	0	471	704	
15	0	0	0	0	470	704	
0	0	0	0	0	471	704	
1	0	0	0	0	471	704	
2	0	0	0	0	472	704	
3	0	0	0	0	471	704	
4	0	0	0	0	471	704	
5	0	0	0	0	472	704	
6	0	0	0	0	473	704	
7	0	0	0	0	476	704	
8	0	0	0	0	479	704	
9	0	0	0	0	479	704	
10	0	0	0	0	478	704	
11	0	0	0	0	478	704	
12	0	0	0	0	477	704	
13	0	0	0	0	476	704	
14	0	0	0	0	476	704	
15	0	0	0	0	478	704	
0	0	0	0	0	479	704	
1	0	0	0	0	481	704	
2	0	0	0	0	485	704	
3	0	0	0	0	488	704	
4	0	0	0	0	491	704	
5	0	0	0	0	492	704	
6	0	0	0	0	494	704	
7	0	0	0	0	495	704	
8	0	0	0	0	497	704	
9	0	0	0	0	499	704	
10	0	0	0	0	500	704	
11	0	0	0	0	499	704	
12	0	0	0	0	497	704	
13	0	0	0	0	496	704	
14	0	0	0	0	494	704	
15	0	0	0	0	492	704	
0	0	0	0	0	489	704	
1	0	0	0	0	488	704	
2	0	0	0	0	489	704	
3	0	0	0	0	491	704	
4	0	0	0	0	494	704	
5	0	0	0	0	495	704	
6	0	0	0	0	497	704	
7	0	0	0	0	499	704	
8	0	0	0	0	499	704	
9	0	0	0	0	500	704	
10	0	0	0	0	501	704	
11	0	0	0	0	502	704	
12	0	0	0	0	502	704	
13	0	0	0	0	502	704	
14	0	0	0	0	502	704	
15	0	0	0	0	503	704	
0	0	0	0	0	504	704	
1	0	0	0	0	505	704	
2	0	0	0	0	507	704	
3	0	0	0	0	508	704	
4	0	0	0	0	507	704	
5	0	0	0	0	507	704	
6	0	0	0	0	508	704	
7	0	0	0	0	508	704	
8	0	0	0	0	508	703	
9	0	0	0	0	507	704	
10	0	0	0	0	508	704	
11	0	0	0	0	508	704	
12	0	0	0	0	508	704	
13	0	0	0	0	508	704	
14	0	0	0	0	509	704	
15	0	0	0	0	508	704	
0	0	0	0	0	507	704	
1	0	0	0	0	505	704	
2	0	0	0	0	504	704	
3	0	0	0	0	505	704	
4	0	0	0	0	507	704	
5	0	0	0	0	510	704	
6	0	0	0	0	511	704	
7	0	0	0	0	511	704	
8	0	0	0	0	512	704	
9	0	0	0	0	512	704	
10	0	0	0	0	514	704	
11	0	0	0	0	514	704	
12	0	0	0	0	516	704	
13	0	0	0	0	518	704	
14	0	0	0	0	519	704	
15	0	0	0	0	519	704	
0	0	0	0	0	520	704	
1	0	0	0	0	521	704	
2	0	0	0	0	522	704	
3	0	0	0	0	522	704	
4	0	0	0	0	522	703	
5	0	0	0	0	521	704	
6	0	0	0	0	521	704	
7	0	0	0	0	522	704	
8	0	0	0	0	523	704	
9	0	0	0	0	523	704	
10	0	0	0	0	522	704	
11	0	0	0	0	520	704	
12	0	0	0	0	519	704	
13	0	0	0	0	521	704	
14	0	0	0	0	523	704	
15	0	0	0	0	524	704	
0	0	0	0	0	525	704	
1	0	0	0	0	527	704	
2	0	0	0	0	527	703	
3	0	0	0	0	528	704	
4	0	0	0	0	529	704	
5	0	0	0	0	529	703	
6	0	0	0	0	530	704	
7	0	0	0	0	530	704	
8	0	0	0	0	531	704	
9	0	0	0	0	530	704	
10	0	0	0	0	528	703	
11	0	0	0	0	528	704	
12	0	0	0	0	529	704	
13	0	0	0	0	534	703	
14	0	0	0	0	535	703	
15	0	0	0	0	535	703	
0	0	0	0	0	536	704	
1	0	0	0	0	535	703	
2	0	0	0	0	537	703	
3	0	0	0	0	538	703	
4	0	0	0	0	539	703	
5	0	0	0	0	540	704	
6	0	0	0	0	539	703	
7	0	0	0	0	540	703	
8	0	0	0	0	540	703	
9	0	0	0	0	540	703	
10	0	0	0	0	540	704	
11	0	0	0	0	539	704	
12	0	0	0	0	539	703	
13	0	0	0	0	537	703	
14	0	0	0	0	536	703	
15	0	0	0	0	537	703	
0	0	0	0	0	539	703	
1	0	0	0	0	539	703	
2	0	0	0	0	538	703	
3	0	0	0	0	539	703	
4	0	0	0	0	541	703	
5	0	0	0	0	540	703	
6	0	0	0	0	540	703	
7	0	0	0	0	542	703	
8	0	0	0	0	542	703	
9	0	0	0	0	543	703	
10	0	0	0	0	546	703	
11	0	0	0	0	548	703	
12	0	0	0	0	549	703	
13	0	0	0	0	548	703	
14	0	0	0	0	548	703	
15	0	0	0	0	547	703	
0	0	0	0	0	545	703	
1	0	0	0	0	544	703	
2	0	0	0	0	545	703	
3	0	0	0	0	548	703	
4	0	0	0	0	548	703	
5	0	0	0	0	549	703	
6	0	0	0	0	551	703	
7	0	0	0	0	551	703	
8	0	0	0	0	551	703	
9	0	0	0	0	553	703	
10	0	0	0	0	552	703	
11	0	0	0	0	552	703	
12	0	0	0	0	552	703	
13	0	0	0	0	553	703	
14	0	0	0	0	552	703	
15	0	0	0	0	550	703	
0	0	0	0	0	549	703	
1	0	0	0	0	548	703	
2	0	0	0	0	547	703	
3	0	0	0	0	545	703	
4	0	0	0	0	546	703	
5	0	0	0	0	547	703	
6	0	0	0	0	550	703	
7	0	0	0	0	551	703	
8	0	0	0	0	551	703	
9	0	0	0	0	550	703	
10	0	0	0	0	548	703	
11	0	0	0	0	547	703	
12	0	0	0	0	547	703	
13	0	0	0	0	547	703	
14	0	0	0	0	548	703	
15	0	0	0	0	550	703	
0	0	0	0	0	551	703	
1	0	0	0	0	551	703	
2	0	0	0	0	550	703	
3	0	0	0	0	550	703	
4	0	0	0	0	549	702	
5	0	0	0	0	549	702	
6	0	0	0	0	550	702	
7	0	0	0	0	549	702	
8	0	0	0	0	548	702	
9	0	0	0	0	547	703	
10	0	0	0	0	547	702	
11	0	0	0	0	547	703	
12	0	0	0	0	545	703	
13	0	0	0	0	545	702	
14	0	0	0	0	545	703	
15	0	0	0	0	543	702	
0	0	0	0	0	542	702	
1	0	0	0	0	540	703	
2	0	0	0	0	538	702	
3	0	0	0	0	537	702	
4	0	0	0	0	536	702	
5	0	0	0	0	538	702	
6	0	0	0	0	539	702	
7	0	0	0	0	540	703	
8	0	0	0	0	539	702	
9	0	0	0	0	537	702	
10	0	0	0	0	536	702	
11	0	0	0	0	537	702	
12	0	0	0	0	538	703	
13	0	0	0	0	537	702	
14	0	0	0	0	536	702	
15	0	0	0	0	535	702	
0	0	0	0	0	534	702	
1	0	0	0	0	532	702	
2	0	0	0	0	529	702	
3	0	0	0	0	527	702	
4	0	0	0	0	526	702	
5	0	0	0	0	524	702	
6	0	0	0	0	521	702	
7	0	0	0	0	516	702	
8	0	0	0	0	513	702	
9	0	0	0	0	512	702	
10	0	0	0	0	511	702	
11	0	0	0	0	512	702	
12	0	0	0	0	513	702	
13	0	0	0	0	515	702	
14	0	0	0	0	514	702	
15	0	0	0	0	512	702	
0	0	0	0	0	510	702	
1	0	0	0	0	509	702	
2	0	0	0	0	509	702	
3	0	0	0	0	508	703	
4	0	0	0	0	507	702	
5	0	0	0	0	505	702	
6	0	0	0	0	504	702	
7	0	0	0	0	504	702	
8	0	0	0	0	504	702	
9	0	0	0	0	502	702	
10	0	0	0	0	499	702	
11	0	0	0	0	499	702	
12	0	0	0	0	498	702	
13	0	0	0	0	497	702	
14	0	0	0	0	497	702	
15	0	0	0	0	496	702	
0	0	0	0	0	497	702	
1	0	0	0	0	496	702	
2	0	0	0	0	496	702	
3	0	0	0	0	496	702	
4	0	0	0	0	496	702	
5	0	0	0	0	496	702	
6	0	0	0	0	496	702	
7	0	0	0	0	495	702	
8	0	0	0	0	493	702	
9	0	0	0	0	490	702	
10	0	0	0	0	487	702	
11	0	0	0	0	486	702	
12	0	0	0	0	487	703	
13	0	0	0	0	489	702	
14	0	0	0	0	491	702	
15	0	0	0	0	492	702	
0	0	0	0	0	493	702	
1	0	0	0	0	495	703	
2	0	0	0	0	494	702	
3	0	0	0	0	491	703	
4	0	0	0	0	488	702	
5	0	0	0	0	487	702	
6	0	0	0	0	486	703	
7	0	0	0	0	483	702	
8	0	0	0	0	481	702	
9	0	0	0	0	479	702	
10	0	0	0	0	480	702	
11	0	0	0	0	482	703	
12	0	0	0	0	484	702	
13	0	0	0	0	487	702	
14	0	0	0	0	488	702	
15	0	0	0	0	488	702	
0	0	0	0	0	489	702	
1	0	0	0	0	491	702	
2	0	0	0	0	491	703	
3	0	0	0	0	492	703	
4	0	0	0	0	491	702	
5	0	0	0	0	489	702	
6	0	0	0	0	489	703	
7	0	0	0	0	489	702	
8	0	0	0	0	489	702	
9	0	0	0	0	489	702	
10	0	0	0	0	489	702	
11	0	0	0	0	491	702	
12	0	0	0	0	491	702	
13	0	0	0	0	493	702	
14	0	0	0	0	493	702	
15	0	0	0	0	494	702	
0	0	0	0	0	494	703	
1	0	0	0	0	494	702	
2	0	0	0	0	493	703	
3	0	0	0	0	492	702	
4	0	0	0	0	493	703	
5	0	0	0	0	494	703	
6	0	0	0	0	493	702	
7	0	0	0	0	493	702	
8	0	0	0	0	494	702	
9	0	0	0	0	494	702	
10	0	0	0	0	494	702	
11	0	0	0	0	494	702	
12	0	0	0	0	495	702	
13	0	0	0	0	496	702	
14	0	0	0	0	497	703	
15	0	0	0	0	496	703	
0	0	0	0	0	496	702	
1	0	0	0	0	498	702	
2	0	0	0	0	499	702	
3	0	0	0	0	499	702	
4	0	0	0	0	500	702	
5	0	0	0	0	502	702	
6	0	0	0	0	500	702	
7	0	0	0	0	497	702	
8	0	0	0	0	495	702	
9	0	0	0	0	493	702	
10	0	0	0	0	492	702	
11	0	0	0	0	493	702	
12	0	0	0	0	495	702	
13	0	0	0	0	496	702	
14	0	0	0	0	498	702	
15	0	0	0	0	500	702	
0	0	0	0	0	502	702	
1	0	0	0	0	503	702	
2	0	0	0	0	504	702	
3	0	0	0	0	505	702	
4	0	0	0	0	505	702	
5	0	0	0	0	505	702	
6	0	0	0	0	504	702	
7	0	0	0	0	504	703	
8	0	0	0	0	504	702	
9	0	0	0	0	504	702	
10	0	0	0	0	505	702	
11	0	0	0	0	507	702	
12	0	0	0	0	509	703	
13	0	0	0	0	510	702	
14	0	0	0	0	511	702	
15	0	0	0	0	511	702	
0	0	0	0	0	511	702	
1	0	0	0	0	511	702	
2	0	0	0	0	511	702	
3	0	0	0	0	512	702	
4	0	0	0	0	512	702	
5	0	0	0	0	513	702	
6	0	0	0	0	514	702	
7	0	0	0	0	515	702	
8	0	0	0	0	516	702	
9	0	0	0	0	515	702	
10	0	0	0	0	512	702	
11	0	0	0	0	511	703	
12	0	0	0	0	510	702	
13	0	0	0	0	509	702	
14	0	0	0	0	507	702	
15	0	0	0	0	505	702	
0	0	0	0	0	505	702	
1	0	0	0	0	508	702	
2	0	0	0	0	509	702	
3	0	0	0	0	510	702	
4	0	0	0	0	510	702	
5	0	0	0	0	513	702	
6	0	0	0	0	515	702	
7	0	0	0	0	516	702	
8	0	0	0	0	517	702	
9	0	0	0	0	517	702	
10	0	0	0	0	518	702	
11	0	0	0	0	517	702	
12	0	0	0	0	515	702	
13	0	0	0	0	513	702	
14	0	0	0	0	512	702	
15	0	0	0	0	513	702	
0	0	0	0	0	514	702	
1	0	0	0	0	515	702	
2	0	0	0	0	515	702	
3	0	0	0	0	515	702	
4	0	0	0	0	516	702	
5	0	0	0	0	518	702	
6	0	0	0	0	519	702	
7	0	0	0	0	518	702	
8	0	0	0	0	517	702	
9	0	0	0	0	516	702	
10	0	0	0	0	516	702	
11	0	0	0	0	516	702	
12	0	0	0	0	516	702	
13	0	0	0	0	516	702	
14	0	0	0	0	514	702	
15	0	0	0	0	513	702	
0	0	0	0	0	514	702	
1	0	0	0	0	516	702	
2	0	0	0	0	518	702	
3	0	0	0	0	518	702	
4	0	0	0	0	519	702	
5	0	0	0	0	520	702	
6	0	0	0	0	521	702	
7	0	0	0	0	521	702	
8	0	0	0	0	523	702	
9	0	0	0	0	524	702	
10	0	0	0	0	524	702	
11	0	0	0	0	523	702	
12	0	0	0	0	522	702	
13	0	0	0	0	522	702	
14	0	0	0	0	523	702	
15	0	0	0	0	526	702	
0	0	0	0	0	529	702	
1	0	0	0	0	532	701	
2	0	0	0	0	535	702	
3	0	0	0	0	536	702	
4	0	0	0	0	537	702	
5	0	0	0	0	539	702	
6	0	0	0	0	540	702	
7	0	0	0	0	539	702	
8	0	0	0	0	538	702	
9	0	0	0	0	537	702	
10	0	0	0	0	537	702	
11	0	0	0	0	538	702	
12	0	0	0	0	537	702	
13	0	0	0	0	536	702	
14	0	0	0	0	536	702	
15	0	0	0	0	537	702	
0	0	0	0	0	536	701	
1	0	0	0	0	536	702	
2	0	0	0	0	536	701	
3	0	0	0	0	535	702	
4	0	0	0	0	535	702	
5	0	0	0	0	535	701	
6	0	0	0	0	535	702	
7	0	0	0	0	536	702	
8	0	0	0	0	539	702	
9	0	0	0	0	540	701	
10	0	0	0	0	540	702	
11	0	0	0	0	540	702	
12	0	0	0	0	542	702	
13	0	0	0	0	542	702	
14	0	0	0	0	541	701	
15	0	0	0	0	541	701	
0	0	0	0	0	541	702	
1	0	0	0	0	540	702	
2	0	0	0	0	539	701	
3	0	0	0	0	540	702	
4	0	0	0	0	540	701	
5	0	0	0	0	541	702	
6	0	0	0	0	540	702	
7	0	0	0	0	540	702	
8	0	0	0	0	541	702	
9	0	0	0	0	542	701	
10	0	0	0	0	543	702	
11	0	0	0	0	542	702	
12	0	0	0	0	540	702	
13	0	0	0	0	537	701	
14	0	0	0	0	536	701	
15	0	0	0	0	536	702	
0	0	0	0	0	535	701	
1	0	0	0	0	534	701	
2	0	0	0	0	535	701	
3	0	0	0	0	538	701	
4	0	0	0	0	540	702	
5	0	0	0	0	543	701	
6	0	0	0	0	544	702	
7	0	0	0	0	544	702	
8	0	0	0	0	542	701	
9	0	0	0	0	539	702	
10	0	0	0	0	533	701	
11	0	0	0	0	528	702	
12	0	0	0	0	525	702	
13	0	0	0	0	522	701	
14	0	0	0	0	521	702	
15	0	0	0	0	519	701	
0	0	0	0	0	518	701	
1	0	0	0	0	515	701	
2	0	0	0	0	514	701	
3	0	0	0	0	514	702	
4	0	0	0	0	514	701	
5	0	0	0	0	515	701	
6	0	0	0	0	516	701	
7	0	0	0	0	516	701	
8	0	0	0	0	518	702	
9	0	0	0	0	519	701	
10	0	0	0	0	519	701	
11	0	0	0	0	519	702	
12	0	0	0	0	520	701	
13	0	0	0	0	519	701	
14	0	0	0	0	516	701	
15	0	0	0	0	515	701	
0	0	0	0	0	513	701	
1	0	0	0	0	512	701	
2	0	0	0	0	511	701	
3	0	0	0	0	509	701	
4	0	0	0	0	508	701	
5	0	0	0	0	508	701	
6	0	0	0	0	508	701	
7	0	0	0	0	509	701	
8	0	0	0	0	511	701	
9	0	0	0	0	511	701	
10	0	0	0	0	509	702	
11	0	0	0	0	508	701	
12	0	0	0	0	507	701	
13	0	0	0	0	505	702	
14	0	0	0	0	504	701	
15	0	0	0	0	505	701	
0	0	0	0	0	504	701	
1	0	0	0	0	504	702	
2	0	0	0	0	503	701	
3	0	0	0	0	504	701	
4	0	0	0	0	506	701	
5	0	0	0	0	507	701	
6	0	0	0	0	507	701	
7	0	0	0	0	507	701	
8	0	0	0	0	508	701	
9	0	0	0	0	508	701	
10	0	0	0	0	509	701	
11	0	0	0	0	510	702	
12	0	0	0	0	511	701	
13	0	0	0	0	511	701	
14	0	0	0	0	512	701	
15	0	0	0	0	512	701	
0	0	0	0	0	512	701	
1	0	0	0	0	512	701	
2	0	0	0	0	513	701	
3	0	0	0	0	513	701	
4	0	0	0	0	512	701	
5	0	0	0	0	512	701	
6	0	0	0	0	511	701	
7	0	0	0	0	511	701	
8	0	0	0	0	513	701	
9	0	0	0	0	511	701	
10	0	0	0	0	509	702	
11	0	0	0	0	507	701	
12	0	0	0	0	507	701	
13	0	0	0	0	506	702	
14	0	0	0	0	505	701	
15	0	0	0	0	504	701	
0	0	0	0	0	504	701	
1	0	0	0	0	505	701	
2	0	0	0	0	506	701	
3	0	0	0	0	508	701	
4	0	0	0	0	510	701	
5	0	0	0	0	512	701	
6	0	0	0	0	513	701	
7	0	0	0	0	513	701	
8	0	0	0	0	513	701	
9	0	0	0	0	513	701	
10	0	0	0	0	513	701	
11	0	0	0	0	514	701	
12	0	0	0	0	514	701	
13	0	0	0	0	514	701	
14	0	0	0	0	513	701	
15	0	0	0	0	510	701	
0	0	0	0	0	507	701	
1	0	0	0	0	504	701	
2	0	0	0	0	500	701	
3	0	0	0	0	496	701	
4	0	0	0	0	493	701	
5	0	0	0	0	491	701	
6	0	0	0	0	487	701	
7	0	0	0	0	484	701	
8	0	0	0	0	482	701	
9	0	0	0	0	484	701	
10	0	0	0	0	487	701	
11	0	0	0	0	488	701	
12	0	0	0	0	491	701	
13	0	0	0	0	496	701	
14	0	0	0	0	503	701	
15	0	0	0	0	511	701	
0	0	0	0	0	520	701	
1	0	0	0	0	532	701	
2	0	0	0	0	543	701	
3	0	0	0	0	552	701	
4	0	0	0	0	561	701	
5	0	0	0	0	570	701	
6	0	0	0	0	580	701	
7	0	0	0	0	592	701	
8	0	0	0	0	604	701	
9	0	0	0	0	618	700	
10	0	0	0	0	635	700	
11	0	0	0	0	652	700	
12	0	0	0	0	670	701	
13	0	0	0	0	689	700	
14	0	0	0	0	711	700	
15	0	0	0	0	734	700	
0	0	0	0	0	758	700	
1	0	0	0	0	784	700	
2	0	0	0	0	812	700	
3	0	0	0	0	833	700	
4	0	0	0	0	840	700	
5	0	0	0	0	835	700	
6	0	0	0	0	823	700	
7	0	0	0	0	805	700	
8	0	0	0	0	784	700	
9	0	0	0	0	761	700	
10	0	0	0	0	733	700	
11	0	0	0	0	706	700	
12	0	0	0	0	678	700	
13	0	0	0	0	651	700	
14	0	0	0	0	626	700	
15	0	0	0	0	600	700	
0	0	0	0	0	575	700	
1	0	0	0	0	552	700	
2	0	0	0	0	532	700	
3	0	0	0	0	514	700	
4	0	0	0	0	499	700	
5	0	0	0	0	488	700	
6	0	0	0	0	478	700	
7	0	0	0	0	468	700	
8	0	0	0	0	457	700	
9	0	0	0	0	449	700	
10	0	0	0	0	441	700	
11	0	0	0	0	437	700	
12	0	0	0	0	435	700	
13	0	0	0	0	434	700	
14	0	0	0	0	436	700	
15	0	0	0	0	440	701	
0	0	0	0	0	443	700	
1	0	0	0	0	446	701	
2	0	0	0	0	448	700	
3	0	0	0	0	450	700	
4	0	0	0	0	453	701	
5	0	0	0	0	458	701	
6	0	0	0	0	462	701	
7	0	0	0	0	464	701	
8	0	0	0	0	467	700	
9	0	0	0	0	470	700	
10	0	0	0	0	473	700	
11	0	0	0	0	477	701	
12	0	0	0	0	480	700	
13	0	0	0	0	481	700	
14	0	0	0	0	483	701	
15	0	0	0	0	484	700	
0	0	0	0	0	484	700	
1	0	0	0	0	483	700	
2	0	0	0	0	481	700	
3	0	0	0	0	480	701	
4	0	0	0	0	480	701	
5	0	0	0	0	479	700	
6	0	0	0	0	478	700	
7	0	0	0	0	479	700	
8	0	0	0	0	480	701	
9	0	0	0	0	480	700	
10	0	0	0	0	483	700	
11	0	0	0	0	484	700	
12	0	0	0	0	487	700	
13	0	0	0	0	488	701	
14	0	0	0	0	488	700	
15	0	0	0	0	489	700	
0	0	0	0	0	491	701	
1	0	0	0	0	491	700	
2	0	0	0	0	491	701	
3	0	0	0	0	489	701	
4	0	0	0	0	488	700	
5	0	0	0	0	489	700	
6	0	0	0	0	489	700	
7	0	0	0	0	490	700	
8	0	0	0	0	490	700	
9	0	0	0	0	489	700	
10	0	0	0	0	488	700	
11	0	0	0	0	489	700	
12	0	0	0	0	491	700	
13	0	0	0	0	492	700	
14	0	0	0	0	494	700	
15	0	0	0	0	496	700	
0	0	0	0	0	496	700	
1	0	0	0	0	496	701	
2	0	0	0	0	496	700	
3	0	0	0	0	495	700	
4	0	0	0	0	496	700	
5	0	0	0	0	496	700	
6	0	0	0	0	496	701	
7	0	0	0	0	497	700	
8	0	0	0	0	498	700	
9	0	0	0	0	500	700	
10	0	0	0	0	500	700	
11	0	0	0	0	502	700	
12	0	0	0	0	505	700	
13	0	0	0	0	507	700	
14	0	0	0	0	508	700	
15	0	0	0	0	507	700	
0	0	0	0	0	508	700	
1	0	0	0	0	507	700	
2	0	0	0	0	505	700	
3	0	0	0	0	505	700	
4	0	0	0	0	506	700	
5	0	0	0	0	506	700	
6	0	0	0	0	505	700	
7	0	0	0	0	507	700	
8	0	0	0	0	507	700	
9	0	0	0	0	507	700	
10	0	0	0	0	507	700	
11	0	0	0	0	510	700	
12	0	0	0	0	512	700	
13	0	0	0	0	513	700	
14	0	0	0	0	513	700	
15	0	0	0	0	514	700	
0	0	0	0	0	515	700	
1	0	0	0	0	515	700	
2	0	0	0	0	514	700	
3	0	0	0	0	512	700	
4	0	0	0	0	512	700	
5	0	0	0	0	513	700	
6	0	0	0	0	513	700	
7	0	0	0	0	514	700	
8	0	0	0	0	514	700	
9	0	0	0	0	514	700	
10	0	0	0	0	515	700	
11	0	0	0	0	517	700	
12	0	0	0	0	520	700	
13	0	0	0	0	523	700	
14	0	0	0	0	526	700	
15	0	0	0	0	529	700	
0	0	0	0	0	530	700	
1	0	0	0	0	531	700	
2	0	0	0	0	533	700	
3	0	0	0	0	536	700	
4	0	0	0	0	537	700	
5	0	0	0	0	538	700	
6	0	0	0	0	537	700	
7	0	0	0	0	536	700	
8	0	0	0	0	536	700	
9	0	0	0	0	535	700	
10	0	0	0	0	531	700	
11	0	0	0	0	529	700	
12	0	0	0	0	529	700	
13	0	0	0	0	531	700	
14	0	0	0	0	531	700	
15	0	0	0	0	532	700	
0	0	0	0	0	535	700	
1	0	0	0	0	536	700	
2	0	0	0	0	539	700	
3	0	0	0	0	540	700	
4	0	0	0	0	542	700	
5	0	0	0	0	543	700	
6	0	0	0	0	542	700	
7	0	0	0	0	541	700	
8	0	0	0	0	542	700	
9	0	0	0	0	541	700	
10	0	0	0	0	540	700	
11	0	0	0	0	541	700	
12	0	0	0	0	542	700	
13	0	0	0	0	541	700	
14	0	0	0	0	540	700	
15	0	0	0	0	539	700	
0	0	0	0	0	538	700	
1	0	0	0	0	538	700	
2	0	0	0	0	540	700	
3	0	0	0	0	541	700	
4	0	0	0	0	541	700	
5	0	0	0	0	540	700	
6	0	0	0	0	542	700	
7	0	0	0	0	541	700	
8	0	0	0	0	541	700	
9	0	0	0	0	541	700	
10	0	0	0	0	541	700	
11	0	0	0	0	542	700	
12	0	0	0	0	543	700	
13	0	0	0	0	546	700	
14	0	0	0	0	547	700	
15	0	0	0	0	548	699	
0	0	0	0	0	549	700	
1	0	0	0	0	550	700	
2	0	0	0	0	551	700	
3	0	0	0	0	552	699	
4	0	0	0	0	552	700	
5	0	0	0	0	553	699	
6	0	0	0	0	553	700	
7	0	0	0	0	555	700	
8	0	0	0	0	556	700	
9	0	0	0	0	556	699	
10	0	0	0	0	558	700	
11	0	0	0	0	558	699	
12	0	0	0	0	560	699	
13	0	0	0	0	560	699	
14	0	0	0	0	561	699	
15	0	0	0	0	562	699	
0	0	0	0	0	561	699	
1	0	0	0	0	559	699	
2	0	0	0	0	558	699	
3	0	0	0	0	558	699	
4	0	0	0	0	560	700	
5	0	0	0	0	561	699	
6	0	0	0	0	561	700	
7	0	0	0	0	562	699	
8	0	0	0	0	561	699	
9	0	0	0	0	562	699	
10	0	0	0	0	561	699	
11	0	0	0	0	560	699	
12	0	0	0	0	560	699	
13	0	0	0	0	561	699	
14	0	0	0	0	564	699	
15	0	0	0	0	566	699	
0	0	0	0	0	568	699	
1	0	0	0	0	570	699	
2	0	0	0	0	571	699	
3	0	0	0	0	574	699	
4	0	0	0	0	575	699	
5	0	0	0	0	576	699	
6	0	0	0	0	576	699	
7	0	0	0	0	574	699	
8	0	0	0	0	572	699	
9	0	0	0	0	568	699	
10	0	0	0	0	565	699	
11	0	0	0	0	565	699	
12	0	0	0	0	563	699	
13	0	0	0	0	559	699	
14	0	0	0	0	558	699	
15	0	0	0	0	558	699	
0	0	0	0	0	561	699	
1	0	0	0	0	563	698	
2	0	0	0	0	567	699	
3	0	0	0	0	568	698	
4	0	0	0	0	569	699	
5	0	0	0	0	568	699	
6	0	0	0	0	568	699	
7	0	0	0	0	569	699	
8	0	0	0	0	568	699	
9	0	0	0	0	568	699	
10	0	0	0	0	567	699	
11	0	0	0	0	566	698	
12	0	0	0	0	566	699	
13	0	0	0	0	566	698	
14	0	0	0	0	566	698	
15	0	0	0	0	565	698	
0	0	0	0	0	565	698	
1	0	0	0	0	567	698	
2	0	0	0	0	568	698	
3	0	0	0	0	571	698	
4	0	0	0	0	571	699	
5	0	0	0	0	570	698	
6	0	0	0	0	572	699	
7	0	0	0	0	570	698	
8	0	0	0	0	569	698	
9	0	0	0	0	569	698	
10	0	0	0	0	565	698	
11	0	0	0	0	561	699	
12	0	0	0	0	557	699	
13	0	0	0	0	555	698	
14	0	0	0	0	552	698	
15	0	0	0	0	550	698	
0	0	0	0	0	548	698	
1	0	0	0	0	546	698	
2	0	0	0	0	545	698	
3	0	0	0	0	545	698	
4	0	0	0	0	547	697	
5	0	0	0	0	547	698	
6	0	0	0	0	547	698	
7	0	0	0	0	545	698	
8	0	0	0	0	543	698	
9	0	0	0	0	543	697	
10	0	0	0	0	542	698	
11	0	0	0	0	540	698	
12	0	0	0	0	540	698	
13	0	0	0	0	537	698	
14	0	0	0	0	534	698	
15	0	0	0	0	528	698	
0	0	0	0	0	525	698	
1	0	0	0	0	525	698	
2	0	0	0	0	524	697	
3	0	0	0	0	526	697	
4	0	0	0	0	529	698	
5	0	0	0	0	531	698	
6	0	0	0	0	531	698	
7	0	0	0	0	531	698	
8	0	0	0	0	530	697	
9	0	0	0	0	528	698	
10	0	0	0	0	526	698	
11	0	0	0	0	524	698	
12	0	0	0	0	523	698	
13	0	0	0	0	520	698	
14	0	0	0	0	517	698	
15	0	0	0	0	514	697	
0	0	0	0	0	512	698	
1	0	0	0	0	511	698	
2	0	0	0	0	511	698	
3	0	0	0	0	512	698	
4	0	0	0	0	514	698	
5	0	0	0	0	514	698	
6	0	0	0	0	514	698	
7	0	0	0	0	513	698	
8	0	0	0	0	514	698	
9	0	0	0	0	513	698	
10	0	0	0	0	513	698	
11	0	0	0	0	514	698	
12	0	0	0	0	513	698	
13	0	0	0	0	512	698	
14	0	0	0	0	509	698	
15	0	0	0	0	506	698	
0	0	0	0	0	505	698	
1	0	0	0	0	505	697	
2	0	0	0	0	506	698	
3	0	0	0	0	507	697	
4	0	0	0	0	507	698	
5	0	0	0	0	507	698	
6	0	0	0	0	509	697	
7	0	0	0	0	513	698	
8	0	0	0	0	516	697	
9	0	0	0	0	517	698	
10	0	0	0	0	516	698	
11	0	0	0	0	514	698	
12	0	0	0	0	513	698	
13	0	0	0	0	514	698	
14	0	0	0	0	514	698	
15	0	0	0	0	513	698	
0	0	0	0	0	512	698	
1	0	0	0	0	511	698	
2	0	0	0	0	510	697	
3	0	0	0	0	508	698	
4	0	0	0	0	508	698	
5	0	0	0	0	509	697	
6	0	0	0	0	511	698	
7	0	0	0	0	511	698	
8	0	0	0	0	512	697	
9	0	0	0	0	512	697	
10	0	0	0	0	515	698	
11	0	0	0	0	517	698	
12	0	0	0	0	518	698	
13	0	0	0	0	519	698	
14	0	0	0	0	519	698	
15	0	0	0	0	518	697	
0	0	0	0	0	519	698	
1	0	0	0	0	519	698	
2	0	0	0	0	519	698	
3	0	0	0	0	519	697	
4	0	0	0	0	520	697	
5	0	0	0	0	519	698	
6	0	0	0	0	519	698	
7	0	0	0	0	520	698	
8	0	0	0	0	519	698	
9	0	0	0	0	518	697	
10	0	0	0	0	517	698	
11	0	0	0	0	515	697	
12	0	0	0	0	516	698	
13	0	0	0	0	519	698	
14	0	0	0	0	520	697	
15	0	0	0	0	521	698	
0	0	0	0	0	521	697	
1	0	0	0	0	521	697	
2	0	0	0	0	523	698	
3	0	0	0	0	524	697	
4	0	0	0	0	524	697	
5	0	0	0	0	525	697	
6	0	0	0	0	526	698	
7	0	0	0	0	526	697	
8	0	0	0	0	527	697	
9	0	0	0	0	528	698	
10	0	0	0	0	530	698	
11	0	0	0	0	532	698	
12	0	0	0	0	532	698	
13	0	0	0	0	534	697	
14	0	0	0	0	534	698	
15	0	0	0	0	534	698	
0	0	0	0	0	534	697	
1	0	0	0	0	534	698	
2	0	0	0	0	532	697	
3	0	0	0	0	532	698	
4	0	0	0	0	533	697	
5	0	0	0	0	535	697	
6	0	0	0	0	534	697	
7	0	0	0	0	536	697	
8	0	0	0	0	537	697	
9	0	0	0	0	537	697	
10	0	0	0	0	537	698	
11	0	0	0	0	536	697	
12	0	0	0	0	534	697	
13	0	0	0	0	535	698	
14	0	0	0	0	534	698	
15	0	0	0	0	535	698	
0	0	0	0	0	534	698	
1	0	0	0	0	534	698	
2	0	0	0	0	534	698	
3	0	0	0	0	532	697	
4	0	0	0	0	531	697	
5	0	0	0	0	533	697	
6	0	0	0	0	534	697	
7	0	0	0	0	536	697	
8	0	0	0	0	537	697	
9	0	0	0	0	539	697	
10	0	0	0	0	540	697	
11	0	0	0	0	543	697	
12	0	0	0	0	544	698	
13	0	0	0	0	544	697	
14	0	0	0	0	543	698	
15	0	0	0	0	542	697	
0	0	0	0	0	540	697	
1	0	0	0	0	540	698	
2	0	0	0	0	541	697	
3	0	0	0	0	540	697	
4	0	0	0	0	538	697	
5	0	0	0	0	539	697	
6	0	0	0	0	539	697	
7	0	0	0	0	538	697	
8	0	0	0	0	537	697	
9	0	0	0	0	537	697	
10	0	0	0	0	537	697	
11	0	0	0	0	539	697	
12	0	0	0	0	542	697	
13	0	0	0	0	544	697	
14	0	0	0	0	545	697	
15	0	0	0	0	547	697	
0	0	0	0	0	548	698	
1	0	0	0	0	547	697	
2	0	0	0	0	547	697	
3	0	0	0	0	549	697	
4	0	0	0	0	548	697	
5	0	0	0	0	548	697	
6	0	0	0	0	547	697	
7	0	0	0	0	546	697	
8	0	0	0	0	544	697	
9	0	0	0	0	544	697	
10	0	0	0	0	545	697	
11	0	0	0	0	546	697	
12	0	0	0	0	547	697	
13	0	0	0	0	548	697	
14	0	0	0	0	550	697	
15	0	0	0	0	551	697	
0	0	0	0	0	550	697	
1	0	0	0	0	550	697	
2	0	0	0	0	550	697	
3	0	0	0	0	548	697	
4	0	0	0	0	548	697	
5	0	0	0	0	549	697	
6	0	0	0	0	548	697	
7	0	0	0	0	547	697	
8	0	0	0	0	547	697	
9	0	0	0	0	547	697	
10	0	0	0	0	547	697	
11	0	0	0	0	550	697	
12	0	0	0	0	552	697	
13	0	0	0	0	555	697	
14	0	0	0	0	558	697	
15	0	0	0	0	559	697	
0	0	0	0	0	559	697	
1	0	0	0	0	558	697	
2	0	0	0	0	557	697	
3	0	0	0	0	559	697	
4	0	0	0	0	560	697	
5	0	0	0	0	562	697	
6	0	0	0	0	563	697	
7	0	0	0	0	561	697	
8	0	0	0	0	558	697	
9	0	0	0	0	555	697	
10	0	0	0	0	553	697	
11	0	0	0	0	553	697	
12	0	0	0	0	553	697	
13	0	0	0	0	553	697	
14	0	0	0	0	553	696	
15	0	0	0	0	555	697	
0	0	0	0	0	555	697	
1	0	0	0	0	556	697	
2	0	0	0	0	557	697	
3	0	0	0	0	557	697	
4	0	0	0	0	558	697	
5	0	0	0	0	558	697	
6	0	0	0	0	558	696	
7	0	0	0	0	559	697	
8	0	0	0	0	559	696	
9	0	0	0	0	560	697	
10	0	0	0	0	563	696	
11	0	0	0	0	566	697	
12	0	0	0	0	568	697	
13	0	0	0	0	568	697	
14	0	0	0	0	568	697	
15	0	0	0	0	569	696	
0	0	0	0	0	571	696	
1	0	0	0	0	572	697	
2	0	0	0	0	573	697	
3	0	0	0	0	574	697	
4	0	0	0	0	573	697	
5	0	0	0	0	571	696	
6	0	0	0	0	570	697	
7	0	0	0	0	569	697	
8	0	0	0	0	570	696	
9	0	0	0	0	571	696	
10	0	0	0	0	573	696	
11	0	0	0	0	575	697	
12	0	0	0	0	575	696	
13	0	0	0	0	576	696	
14	0	0	0	0	578	696	
15	0	0	0	0	578	696	
0	0	0	0	0	579	696	
1	0	0	0	0	581	696	
2	0	0	0	0	582	696	
3	0	0	0	0	582	696	
4	0	0	0	0	579	696	
5	0	0	0	0	578	696	
6	0	0	0	0	577	696	
7	0	0	0	0	577	696	
8	0	0	0	0	577	696	
9	0	0	0	0	577	696	
10	0	0	0	0	576	696	
11	0	0	0	0	576	696	
12	0	0	0	0	575	696	
13	0	0	0	0	575	696	
14	0	0	0	0	578	696	
15	0	0	0	0	580	696	
0	0	0	0	0	583	696	
1	0	0	0	0	583	696	
2	0	0	0	0	583	696	
3	0	0	0	0	582	696	
4	0	0	0	0	581	696	
5	0	0	0	0	579	696	
6	0	0	0	0	577	696	
7	0	0	0	0	574	696	
8	0	0	0	0	572	696	
9	0	0	0	0	574	696	
10	0	0	0	0	573	696	
11	0	0	0	0	573	696	
12	0	0	0	0	574	696	
13	0	0	0	0	575	696	
14	0	0	0	0	577	696	
15	0	0	0	0	579	696	
0	0	0	0	0	580	696	
1	0	0	0	0	579	696	
2	0	0	0	0	576	696	
3	0	0	0	0	574	696	
4	0	0	0	0	570	696	
5	0	0	0	0	567	696	
6	0	0	0	0	565	696	
7	0	0	0	0	562	696	
8	0	0	0	0	559	696	
9	0	0	0	0	556	696	
10	0	0	0	0	552	696	
11	0	0	0	0	549	696	
12	0	0	0	0	548	696	
13	0	0	0	0	548	696	
14	0	0	0	0	547	696	
15	0	0	0	0	546	696	
0	0	0	0	0	545	696	
1	0	0	0	0	543	696	
2	0	0	0	0	543	696	
3	0	0	0	0	541	696	
4	0	0	0	0	540	696	
5	0	0	0	0	542	696	
6	0	0	0	0	543	696	
7	0	0	0	0	548	696	
8	0	0	0	0	550	696	
9	0	0	0	0	552	696	
10	0	0	0	0	553	696	
11	0	0	0	0	553	695	
12	0	0	0	0	555	696	
13	0	0	0	0	555	696	
14	0	0	0	0	554	696	
15	0	0	0	0	553	696	
0	0	0	0	0	552	695	
1	0	0	0	0	552	696	
2	0	0	0	0	550	695	
3	0	0	0	0	550	696	
4	0	0	0	0	548	696	
5	0	0	0	0	548	696	
6	0	0	0	0	547	696	
7	0	0	0	0	546	696	
8	0	0	0	0	544	696	
9	0	0	0	0	543	696	
10	0	0	0	0	542	696	
11	0	0	0	0	541	696	
12	0	0	0	0	540	695	
13	0	0	0	0	538	696	
14	0	0	0	0	538	696	
15	0	0	0	0	537	695	
0	0	0	0	0	538	696	
1	0	0	0	0	539	695	
2	0	0	0	0	541	696	
3	0	0	0	0	540	695	
4	0	0	0	0	539	696	
5	0	0	0	0	539	696	
6	0	0	0	0	538	696	
7	0	0	0	0	536	696	
8	0	0	0	0	534	696	
9	0	0	0	0	532	695	
10	0	0	0	0	534	696	
11	0	0	0	0	534	695	
12	0	0	0	0	534	696	
13	0	0	0	0	536	695	
14	0	0	0	0	537	695	
15	0	0	0	0	539	696	
0	0	0	0	0	540	695	
1	0	0	0	0	542	695	
2	0	0	0	0	542	695	
3	0	0	0	0	543	695	
4	0	0	0	0	544	696	
5	0	0	0	0	545	696	
6	0	0	0	0	545	696	
7	0	0	0	0	546	696	
8	0	0	0	0	545	695	
9	0	0	0	0	544	696	
10	0	0	0	0	541	695	
11	0	0	0	0	539	695	
12	0	0	0	0	536	695	
13	0	0	0	0	535	695	
14	0	0	0	0	534	695	
15	0	0	0	0	534	695	
0	0	0	0	0	536	695	
1	0	0	0	0	538	695	
2	0	0	0	0	540	695	
3	0	0	0	0	542	696	
4	0	0	0	0	543	695	
5	0	0	0	0	543	695	
6	0	0	0	0	541	695	
7	0	0	0	0	540	695	
8	0	0	0	0	541	695	
9	0	0	0	0	541	695	
10	0	0	0	0	541	695	
11	0	0	0	0	538	695	
12	0	0	0	0	534	695	
13	0	0	0	0	532	695	
14	0	0	0	0	530	695	
15	0	0	0	0	528	695	
0	0	0	0	0	526	695	
1	0	0	0	0	522	695	
2	0	0	0	0	519	695	
3	0	0	0	0	514	695	
4	0	0	0	0	511	695	
5	0	0	0	0	509	695	
6	0	0	0	0	511	695	
7	0	0	0	0	516	695	
8	0	0	0	0	522	695	
9	0	0	0	0	529	695	
10	0	0	0	0	536	695	
11	0	0	0	0	544	695	
12	0	0	0	0	551	695	
13	0	0	0	0	560	695	
14	0	0	0	0	571	695	
15	0	0	0	0	581	695	
0	0	0	0	0	591	695	
1	0	0	0	0	598	695	
2	0	0	0	0	602	694	
3	0	0	0	0	610	694	
4	0	0	0	0	623	695	
5	0	0	0	0	636	694	
6	0	0	0	0	651	695	
7	0	0	0	0	667	695	
8	0	0	0	0	684	694	
9	0	0	0	0	703	694	
10	0	0	0	0	721	694	
11	0	0	0	0	742	694	
12	0	0	0	0	764	694	
13	0	0	0	0	790	694	
14	0	0	0	0	817	694	
15	0	0	0	0	835	694	
0	0	0	0	0	841	694	
1	0	0	0	0	838	694	
2	0	0	0	0	828	694	
3	0	0	0	0	811	693	
4	0	0	0	0	791	693	
5	0	0	0	0	768	694	
6	0	0	0	0	742	693	
7	0	0	0	0	712	694	
8	0	0	0	0	684	694	
9	0	0	0	0	658	693	
10	0	0	0	0	635	694	
11	0	0	0	0	612	694	
12	0	0	0	0	590	694	
13	0	0	0	0	567	694	
14	0	0	0	0	545	694	
15	0	0	0	0	528	694	
0	0	0	0	0	514	694	
1	0	0	0	0	503	694	
2	0	0	0	0	492	694	
3	0	0	0	0	482	694	
4	0	0	0	0	473	694	
5	0	0	0	0	465	694	
6	0	0	0	0	459	694	
7	0	0	0	0	454	694	
8	0	0	0	0	449	694	
9	0	0	0	0	450	695	
10	0	0	0	0	451	695	
11	0	0	0	0	452	694	
12	0	0	0	0	454	694	
13	0	0	0	0	457	694	
14	0	0	0	0	461	695	
15	0	0	0	0	465	694	
0	0	0	0	0	470	694	
1	0	0	0	0	475	694	
2	0	0	0	0	481	694	
3	0	0	0	0	488	694	
4	0	0	0	0	494	694	
5	0	0	0	0	496	694	
6	0	0	0	0	498	694	
7	0	0	0	0	500	694	
8	0	0	0	0	500	694	
9	0	0	0	0	500	694	
10	0	0	0	0	499	694	
11	0	0	0	0	499	694	
12	0	0	0	0	499	694	
13	0	0	0	0	499	694	
14	0	0	0	0	498	695	
15	0	0	0	0	497	694	
0	0	0	0	0	497	694	
1	0	0	0	0	499	694	
2	0	0	0	0	499	695	
3	0	0	0	0	500	694	
4	0	0	0	0	501	694	
5	0	0	0	0	502	694	
6	0	0	0	0	503	694	
7	0	0	0	0	505	694	
8	0	0	0	0	506	694	
9	0	0	0	0	507	694	
10	0	0	0	0	505	694	
11	0	0	0	0	503	694	
12	0	0	0	0	503	694	
13	0	0	0	0	503	694	
14	0	0	0	0	502	694	
15	0	0	0	0	501	694	
0	0	0	0	0	499	694	
1	0	0	0	0	497	694	
2	0	0	0	0	496	694	
3	0	0	0	0	498	694	
4	0	0	0	0	500	694	
5	0	0	0	0	503	694	
6	0	0	0	0	504	694	
7	0	0	0	0	507	694	
8	0	0	0	0	507	694	
9	0	0	0	0	508	694	
10	0	0	0	0	508	694	
11	0	0	0	0	508	694	
12	0	0	0	0	508	694	
13	0	0	0	0	509	694	
14	0	0	0	0	510	694	
15	0	0	0	0	510	694	
0	0	0	0	0	510	694	
1	0	0	0	0	510	694	
2	0	0	0	0	510	694	
3	0	0	0	0	511	694	
4	0	0	0	0	510	694	
5	0	0	0	0	510	694	
6	0	0	0	0	510	694	
7	0	0	0	0	510	694	
8	0	0	0	0	512	694	
9	0	0	0	0	513	693	
10	0	0	0	0	514	694	
11	0	0	0	0	513	694	
12	0	0	0	0	512	694	
13	0	0	0	0	513	694	
14	0	0	0	0	514	694	
15	0	0	0	0	515	694	
0	0	0	0	0	515	694	
1	0	0	0	0	516	694	
2	0	0	0	0	517	694	
3	0	0	0	0	519	693	
4	0	0	0	0	519	694	
5	0	0	0	0	519	693	
6	0	0	0	0	520	694	
7	0	0	0	0	519	693	
8	0	0	0	0	520	693	
9	0	0	0	0	520	693	
10	0	0	0	0	520	693	
11	0	0	0	0	519	693	
12	0	0	0	0	516	693	
13	0	0	0	0	515	694	
14	0	0	0	0	515	694	
15	0	0	0	0	514	694	
0	0	0	0	0	513	694	
1	0	0	0	0	514	693	
2	0	0	0	0	516	693	
3	0	0	0	0	517	694	
4	0	0	0	0	517	693	
5	0	0	0	0	519	693	
6	0	0	0	0	520	693	
7	0	0	0	0	521	693	
8	0	0	0	0	521	693	
9	0	0	0	0	519	693	
10	0	0	0	0	518	693	
11	0	0	0	0	519	693	
12	0	0	0	0	519	693	
13	0	0	0	0	520	693	
14	0	0	0	0	522	693	
15	0	0	0	0	523	693	
0	0	0	0	0	523	693	
1	0	0	0	0	524	693	
2	0	0	0	0	525	693	
3	0	0	0	0	527	693	
4	0	0	0	0	527	693	
5	0	0	0	0	527	693	
6	0	0	0	0	527	693	
7	0	0	0	0	526	693	
8	0	0	0	0	525	692	
9	0	0	0	0	524	693	
10	0	0	0	0	524	693	
11	0	0	0	0	524	693	
12	0	0	0	0	526	693	
13	0	0	0	0	528	693	
14	0	0	0	0	529	693	
15	0	0	0	0	530	693	
0	0	0	0	0	530	693	
1	0	0	0	0	530	693	
2	0	0	0	0	529	693	
3	0	0	0	0	528	693	
4	0	0	0	0	527	693	
5	0	0	0	0	527	692	
6	0	0	0	0	527	693	
7	0	0	0	0	527	693	
8	0	0	0	0	528	692	
9	0	0	0	0	528	692	
10	0	0	0	0	529	692	
11	0	0	0	0	530	693	
12	0	0	0	0	528	692	
13	0	0	0	0	528	693	
14	0	0	0	0	529	692	
15	0	0	0	0	529	692	
0	0	0	0	0	529	693	
1	0	0	0	0	528	693	
2	0	0	0	0	527	693	
3	0	0	0	0	527	693	
4	0	0	0	0	528	692	
5	0	0	0	0	528	693	
6	0	0	0	0	529	692	
7	0	0	0	0	531	692	
8	0	0	0	0	533	692	
9	0	0	0	0	535	692	
10	0	0	0	0	537	692	
11	0	0	0	0	537	692	
12	0	0	0	0	538	692	
13	0	0	0	0	539	692	
14	0	0	0	0	537	692	
15	0	0	0	0	537	692	
0	0	0	0	0	536	692	
1	0	0	0	0	534	692	
2	0	0	0	0	533	692	
3	0	0	0	0	532	692	
4	0	0	0	0	534	692	
5	0	0	0	0	535	692	
6	0	0	0	0	535	692	
7	0	0	0	0	536	692	
8	0	0	0	0	537	692	
9	0	0	0	0	539	691	
10	0	0	0	0	540	692	
11	0	0	0	0	540	692	
12	0	0	0	0	540	692	
13	0	0	0	0	540	692	
14	0	0	0	0	539	692	
15	0	0	0	0	537	692	
0	0	0	0	0	536	692	
1	0	0	0	0	535	692	
2	0	0	0	0	535	692	
3	0	0	0	0	535	692	
4	0	0	0	0	534	692	
5	0	0	0	0	532	692	
6	0	0	0	0	531	692	
7	0	0	0	0	531	692	
8	0	0	0	0	531	692	
9	0	0	0	0	531	692	
10	0	0	0	0	532	692	
11	0	0	0	0	535	691	
12	0	0	0	0	539	691	
13	0	0	0	0	542	692	
14	0	0	0	0	544	692	
15	0	0	0	0	544	692	
0	0	0	0	0	544	692	
1	0	0	0	0	544	692	
2	0	0	0	0	545	692	
3	0	0	0	0	545	692	
4	0	0	0	0	545	692	
5	0	0	0	0	543	692	
6	0	0	0	0	542	691	
7	0	0	0	0	540	692	
8	0	0	0	0	540	691	
9	0	0	0	0	539	691	
10	0	0	0	0	538	691	
11	0	0	0	0	536	691	
12	0	0	0	0	535	692	
13	0	0	0	0	534	691	
14	0	0	0	0	531	692	
15	0	0	0	0	532	691	
0	0	0	0	0	534	691	
1	0	0	0	0	534	692	
2	0	0	0	0	534	691	
3	0	0	0	0	534	691	
4	0	0	0	0	533	691	
5	0	0	0	0	531	691	
6	0	0	0	0	529	691	
7	0	0	0	0	527	691	
8	0	0	0	0	526	691	
9	0	0	0	0	524	691	
10	0	0	0	0	524	691	
11	0	0	0	0	525	691	
12	0	0	0	0	525	691	
13	0	0	0	0	527	691	
14	0	0	0	0	528	691	
15	0	0	0	0	529	691	
0	0	0	0	0	531	691	
1	0	0	0	0	530	691	
2	0	0	0	0	527	691	
3	0	0	0	0	524	691	
4	0	0	0	0	521	691	
5	0	0	0	0	519	691	
6	0	0	0	0	518	691	
7	0	0	0	0	516	691	
8	0	0	0	0	514	691	
9	0	0	0	0	510	691	
10	0	0	0	0	508	691	
11	0	0	0	0	504	691	
12	0	0	0	0	503	691	
13	0	0	0	0	504	691	
14	0	0	0	0	506	691	
15	0	0	0	0	508	691	
0	0	0	0	0	508	691	
1	0	0	0	0	507	691	
2	0	0	0	0	508	691	
3	0	0	0	0	506	691	
4	0	0	0	0	504	691	
5	0	0	0	0	502	691	
6	0	0	0	0	500	691	
7	0	0	0	0	497	691	
8	0	0	0	0	496	691	
9	0	0	0	0	494	691	
10	0	0	0	0	491	691	
11	0	0	0	0	487	691	
12	0	0	0	0	484	691	
13	0	0	0	0	484	691	
14	0	0	0	0	483	691	
15	0	0	0	0	484	691	
0	0	0	0	0	483	691	
1	0	0	0	0	483	691	
2	0	0	0	0	481	691	
3	0	0	0	0	479	691	
4	0	0	0	0	479	691	
5	0	0	0	0	478	691	
6	0	0	0	0	477	691	
7	0	0	0	0	475	691	
8	0	0	0	0	472	691	
9	0	0	0	0	469	691	
10	0	0	0	0	467	691	
11	0	0	0	0	465	691	
12	0	0	0	0	465	691	
13	0	0	0	0	466	691	
14	0	0	0	0	466	691	
15	0	0	0	0	466	691	
0	0	0	0	0	463	691	
1	0	0	0	0	461	691	
2	0	0	0	0	460	691	
3	0	0	0	0	459	691	
4	0	0	0	0	459	691	
5	0	0	0	0	457	691	
6	0	0	0	0	455	691	
7	0	0	0	0	455	691	
8	0	0	0	0	453	691	
9	0	0	0	0	453	691	
10	0	0	0	0	452	691	
11	0	0	0	0	452	691	
12	0	0	0	0	452	691	
13	0	0	0	0	453	691	
14	0	0	0	0	453	691	
15	0	0	0	0	453	691	
0	0	0	0	0	451	691	
1	0	0	0	0	451	691	
2	0	0	0	0	450	691	
3	0	0	0	0	448	691	
4	0	0	0	0	447	691	
5	0	0	0	0	444	691	
6	0	0	0	0	443	691	
7	0	0	0	0	441	691	
8	0	0	0	0	441	691	
9	0	0	0	0	441	691	
10	0	0	0	0	441	691	
11	0	0	0	0	442	691	
12	0	0	0	0	442	691	
13	0	0	0	0	442	691	
14	0	0	0	0	444	691	
15	0	0	0	0	444	691	
0	0	0	0	0	444	691	
1	0	0	0	0	444	691	
2	0	0	0	0	443	691	
3	0	0	0	0	442	691	
4	0	0	0	0	441	691	
5	0	0	0	0	442	691	
6	0	0	0	0	441	691	
7	0	0	0	0	440	691	
8	0	0	0	0	440	691	
9	0	0	0	0	439	691	
10	0	0	0	0	439	691	
11	0	0	0	0	439	691	
12	0	0	0	0	438	691	
13	0	0	0	0	438	691	
14	0	0	0	0	438	691	
15	0	0	0	0	439	691	
0	0	0	0	0	440	691	
1	0	0	0	0	442	691	
2	0	0	0	0	442	691	
3	0	0	0	0	442	691	
4	0	0	0	0	443	691	
5	0	0	0	0	444	691	
6	0	0	0	0	446	691	
7	0	0	0	0	446	691	
8	0	0	0	0	445	691	
9	0	0	0	0	444	691	
10	0	0	0	0	441	691	
11	0	0	0	0	440	691	
12	0	0	0	0	438	691	
13	0	0	0	0	439	691	
14	0	0	0	0	441	691	
15	0	0	0	0	441	691	
0	0	0	0	0	442	691	
1	0	0	0	0	442	691	
2	0	0	0	0	442	691	
3	0	0	0	0	444	691	
4	0	0	0	0	444	691	
5	0	0	0	0	445	691	
6	0	0	0	0	448	691	
7	0	0	0	0	448	691	
8	0	0	0	0	448	691	
9	0	0	0	0	447	691	
10	0	0	0	0	444	691	
11	0	0	0	0	441	691	
12	0	0	0	0	438	691	
13	0	0	0	0	436	691	
14	0	0	0	0	435	691	
15	0	0	0	0	434	691	
0	0	0	0	0	434	691	
1	0	0	0	0	435	691	
2	0	0	0	0	437	691	
3	0	0	0	0	440	691	
4	0	0	0	0	441	691	
5	0	0	0	0	443	691	
6	0	0	0	0	444	691	
7	0	0	0	0	446	691	
8	0	0	0	0	446	691	
9	0	0	0	0	446	691	
10	0	0	0	0	447	691	
11	0	0	0	0	447	691	
12	0	0	0	0	446	691	
13	0	0	0	0	443	691	
14	0	0	0	0	440	691	
15	0	0	0	0	439	691	
0	0	0	0	0	439	691	
1	0	0	0	0	438	691	
2	0	0	0	0	437	691	
3	0	0	0	0	437	691	
4	0	0	0	0	438	691	
5	0	0	0	0	438	691	
6	0	0	0	0	439	691	
7	0	0	0	0	440	691	
8	0	0	0	0	440	691	
9	0	0	0	0	440	691	
10	0	0	0	0	439	691	
11	0	0	0	0	438	691	
12	0	0	0	0	436	691	
13	0	0	0	0	437	691	
14	0	0	0	0	437	691	
15	0	0	0	0	437	691	
0	0	0	0	0	436	691	
1	0	0	0	0	436	691	
2	0	0	0	0	437	691	
3	0	0	0	0	438	691	
4	0	0	0	0	439	691	
5	0	0	0	0	439	691	
6	0	0	0	0	438	691	
7	0	0	0	0	436	691	
8	0	0	0	0	436	691	
9	0	0	0	0	436	691	
10	0	0	0	0	436	691	
11	0	0	0	0	435	691	
12	0	0	0	0	432	691	
13	0	0	0	0	432	691	
14	0	0	0	0	431	691	
15	0	0	0	0	431	691	
0	0	0	0	0	430	691	
1	0	0	0	0	430	691	
2	0	0	0	0	428	691	
3	0	0	0	0	427	691	
4	0	0	0	0	426	691	
5	0	0	0	0	427	691	
6	0	0	0	0	428	691	
7	0	0	0	0	428	691	
8	0	0	0	0	428	691	
9	0	0	0	0	429	691	
10	0	0	0	0	429	691	
11	0	0	0	0	429	691	
12	0	0	0	0	431	691	
13	0	0	0	0	431	691	
14	0	0	0	0	429	691	
15	0	0	0	0	429	691	
0	0	0	0	0	427	691	
1	0	0	0	0	426	691	
2	0	0	0	0	425	691	
3	0	0	0	0	424	691	
4	0	0	0	0	424	691	
5	0	0	0	0	424	691	
6	0	0	0	0	424	691	
7	0	0	0	0	425	691	
8	0	0	0	0	426	691	
9	0	0	0	0	425	691	
10	0	0	0	0	424	691	
11	0	0	0	0	422	691	
12	0	0	0	0	419	691	
13	0	0	0	0	418	691	
14	0	0	0	0	415	691	
15	0	0	0	0	413	691	
0	0	0	0	0	411	691	
1	0	0	0	0	412	691	
2	0	0	0	0	412	691	
3	0	0	0	0	411	691	
4	0	0	0	0	411	691	
5	0	0	0	0	410	691	
6	0	0	0	0	409	691	
7	0	0	0	0	411	691	
8	0	0	0	0	411	691	
9	0	0	0	0	412	691	
10	0	0	0	0	412	691	
11	0	0	0	0	413	691	
12	0	0	0	0	412	691	
13	0	0	0	0	410	691	
14	0	0	0	0	409	691	
15	0	0	0	0	409	691	
0	0	0	0	0	410	691	
1	0	0	0	0	410	691	
2	0	0	0	0	411	691	
3	0	0	0	0	412	691	
4	0	0	0	0	413	691	
5	0	0	0	0	412	691	
6	0	0	0	0	411	691	
7	0	0	0	0	411	691	
8	0	0	0	0	412	691	
9	0	0	0	0	414	691	
10	0	0	0	0	415	691	
11	0	0	0	0	417	692	
12	0	0	0	0	417	691	
13	0	0	0	0	418	691	
14	0	0	0	0	419	691	
15	0	0	0	0	417	691	
0	0	0	0	0	416	692	
1	0	0	0	0	415	691	
2	0	0	0	0	416	691	
3	0	0	0	0	415	691	
4	0	0	0	0	414	691	
5	0	0	0	0	415	691	
6	0	0	0	0	415	691	
7	0	0	0	0	416	691	
8	0	0	0	0	418	691	
9	0	0	0	0	419	691	
10	0	0	0	0	419	692	
11	0	0	0	0	419	691	
12	0	0	0	0	417	691	
13	0	0	0	0	417	691	
14	0	0	0	0	416	691	
15	0	0	0	0	415	692	
0	0	0	0	0	412	692	
1	0	0	0	0	411	691	
2	0	0	0	0	409	691	
3	0	0	0	0	409	691	
4	0	0	0	0	410	692	
5	0	0	0	0	411	691	
6	0	0	0	0	412	691	
7	0	0	0	0	412	691	
8	0	0	0	0	413	691	
9	0	0	0	0	413	691	
10	0	0	0	0	413	691	
11	0	0	0	0	413	692	
12	0	0	0	0	412	691	
13	0	0	0	0	412	691	
14	0	0	0	0	412	692	
15	0	0	0	0	412	691	
0	0	0	0	0	410	692	
1	0	0	0	0	408	691	
2	0	0	0	0	409	691	
3	0	0	0	0	409	692	
4	0	0	0	0	409	692	
5	0	0	0	0	409	691	
6	0	0	0	0	410	691	
7	0	0	0	0	410	691	
8	0	0	0	0	413	692	
9	0	0	0	0	415	692	
10	0	0	0	0	415	692	
11	0	0	0	0	415	692	
12	0	0	0	0	413	691	
13	0	0	0	0	411	692	
14	0	0	0	0	410	692	
15	0	0	0	0	408	691	
0	0	0	0	0	406	692	
1	0	0	0	0	403	692	
2	0	0	0	0	401	692	
3	0	0	0	0	400	692	
4	0	0	0	0	400	692	
5	0	0	0	0	399	692	
6	0	0	0	0	397	691	
7	0	0	0	0	394	692	
8	0	0	0	0	391	691	
9	0	0	0	0	387	692	
10	0	0	0	0	384	692	
11	0	0	0	0	378	691	
12	0	0	0	0	376	692	
13	0	0	0	0	373	691	
14	0	0	0	0	372	692	
15	0	0	0	0	371	692	
0	0	0	0	0	371	692	
1	0	0	0	0	370	692	
2	0	0	0	0	368	692	
3	0	0	0	0	367	692	
4	0	0	0	0	365	692	
5	0	0	0	0	364	691	
6	0	0	0	0	364	692	
7	0	0	0	0	363	692	
8	0	0	0	0	361	691	
9	0	0	0	0	361	692	
10	0	0	0	0	361	692	
11	0	0	0	0	361	692	
12	0	0	0	0	360	692	
13	0	0	0	0	359	692	
14	0	0	0	0	358	692	
15	0	0	0	0	356	692	
0	0	0	0	0	355	693	
1	0	0	0	0	352	692	
2	0	0	0	0	350	692	
3	0	0	0	0	348	692	
4	0	0	0	0	348	692	
5	0	0	0	0	347	692	
6	0	0	0	0	347	692	
7	0	0	0	0	346	692	
8	0	0	0	0	345	692	
9	0	0	0	0	345	692	
10	0	0	0	0	345	692	
11	0	0	0	0	345	692	
12	0	0	0	0	344	692	
13	0	0	0	0	343	692	
14	0	0	0	0	342	692	
15	0	0	0	0	344	693	
0	0	0	0	0	344	692	
1	0	0	0	0	344	692	
2	0	0	0	0	344	692	
3	0	0	0	0	344	692	
4	0	0	0	0	342	692	
5	0	0	0	0	341	692	
6	0	0	0	0	339	693	
7	0	0	0	0	337	692	
8	0	0	0	0	337	692	
9	0	0	0	0	337	693	
10	0	0	0	0	337	693	
11	0	0	0	0	337	692	
12	0	0	0	0	338	692	
13	0	0	0	0	339	692	
14	0	0	0	0	340	693	
15	0	0	0	0	341	692	
0	0	0	0	0	342	693	
1	0	0	0	0	343	693	
2	0	0	0	0	343	693	
3	0	0	0	0	343	693	
4	0	0	0	0	342	693	
5	0	0	0	0	340	693	
6	0	0	0	0	339	693	
7	0	0	0	0	338	693	
8	0	0	0	0	338	693	
9	0	0	0	0	340	693	
10	0	0	0	0	341	693	
11	0	0	0	0	342	693	
12	0	0	0	0	341	693	
13	0	0	0	0	341	693	
14	0	0	0	0	340	693	
15	0	0	0	0	342	693	
0	0	0	0	0	343	693	
1	0	0	0	0	343	693	
2	0	0	0	0	342	693	
3	0	0	0	0	340	693	
4	0	0	0	0	341	693	
5	0	0	0	0	340	693	
6	0	0	0	0	340	693	
7	0	0	0	0	339	693	
8	0	0	0	0	336	693	
9	0	0	0	0	335	693	
10	0	0	0	0	334	693	
11	0	0	0	0	333	693	
12	0	0	0	0	334	694	
13	0	0	0	0	334	693	
14	0	0	0	0	334	694	
15	0	0	0	0	331	694	
0	0	0	0	0	329	693	
1	0	0	0	0	327	694	
2	0	0	0	0	324	694	
3	0	0	0	0	319	694	
4	0	0	0	0	317	694	
5	0	0	0	0	312	694	
6	0	0	0	0	308	694	
7	0	0	0	0	305	694	
8	0	0	0	0	303	694	
9	0	0	0	0	304	694	
10	0	0	0	0	309	694	
11	0	0	0	0	315	694	
12	0	0	0	0	321	693	
13	0	0	0	0	328	694	
14	0	0	0	0	337	694	
15	0	0	0	0	345	694	
0	0	0	0	0	353	694	
1	0	0	0	0	360	694	
2	0	0	0	0	368	694	
3	0	0	0	0	377	694	
4	0	0	0	0	383	694	
5	0	0	0	0	391	694	
6	0	0	0	0	403	694	
7	0	0	0	0	415	694	
8	0	0	0	0	428	694	
9	0	0	0	0	443	693	
10	0	0	0	0	460	694	
11	0	0	0	0	479	694	
12	0	0	0	0	496	693	
13	0	0	0	0	515	694	
14	0	0	0	0	538	693	
15	0	0	0	0	567	694	
0	0	0	0	0	595	694	
1	0	0	0	0	619	693	
2	0	0	0	0	634	693	
3	0	0	0	0	635	693	
4	0	0	0	0	629	693	
5	0	0	0	0	620	693	
6	0	0	0	0	608	694	
7	0	0	0	0	590	693	
8	0	0	0	0	568	693	
9	0	0	0	0	542	693	
10	0	0	0	0	513	693	
11	0	0	0	0	489	693	
12	0	0	0	0	465	693	
13	0	0	0	0	441	693	
14	0	0	0	0	419	694	
15	0	0	0	0	397	694	
0	0	0	0	0	377	694	
1	0	0	0	0	358	694	
2	0	0	0	0	340	694	
3	0	0	0	0	326	694	
4	0	0	0	0	312	694	
5	0	0	0	0	299	694	
6	0	0	0	0	287	695	
7	0	0	0	0	276	695	
8	0	0	0	0	266	695	
9	0	0	0	0	255	695	
10	0	0	0	0	248	695	
11	0	0	0	0	240	695	
12	0	0	0	0	235	694	
13	0	0	0	0	232	695	
14	0	0	0	0	231	694	
15	0	0	0	0	231	695	
0	0	0	0	0	233	695	
1	0	0	0	0	235	695	
2	0	0	0	0	239	695	
3	0	0	0	0	245	696	
4	0	0	0	0	251	695	
5	0	0	0	0	256	695	
6	0	0	0	0	259	695	
7	0	0	0	0	259	696	
8	0	0	0	0	259	695	
9	0	0	0	0	262	696	
10	0	0	0	0	263	696	
11	0	0	0	0	265	695	
12	0	0	0	0	267	696	
13	0	0	0	0	271	696	
14	0	0	0	0	273	696	
15	0	0	0	0	273	695	
0	0	0	0	0	274	695	
1	0	0	0	0	278	696	
2	0	0	0	0	280	696	
3	0	0	0	0	281	695	
4	0	0	0	0	283	696	
5	0	0	0	0	284	696	
6	0	0	0	0	284	696	
7	0	0	0	0	284	696	
8	0	0	0	0	282	696	
9	0	0	0	0	282	696	
10	0	0	0	0	284	696	
11	0	0	0	0	286	696	
12	0	0	0	0	287	696	
13	0	0	0	0	288	696	
14	0	0	0	0	289	696	
15	0	0	0	0	289	696	
0	0	0	0	0	291	696	
1	0	0	0	0	294	696	
2	0	0	0	0	295	696	
3	0	0	0	0	298	696	
4	0	0	0	0	300	696	
5	0	0	0	0	301	696	
6	0	0	0	0	300	696	
7	0	0	0	0	301	696	
8	0	0	0	0	300	696	
9	0	0	0	0	300	696	
10	0	0	0	0	300	696	
11	0	0	0	0	299	696	
12	0	0	0	0	301	696	
13	0	0	0	0	301	696	
14	0	0	0	0	301	696	
15	0	0	0	0	302	696	
0	0	0	0	0	303	696	
1	0	0	0	0	305	696	
2	0	0	0	0	307	696	
3	0	0	0	0	309	696	
4	0	0	0	0	310	696	
5	0	0	0	0	312	697	
6	0	0	0	0	313	697	
7	0	0	0	0	314	696	
8	0	0	0	0	316	697	
9	0	0	0	0	317	696	
10	0	0	0	0	316	697	
11	0	0	0	0	315	697	
12	0	0	0	0	315	697	
13	0	0	0	0	315	696	
14	0	0	0	0	315	697	
15	0	0	0	0	317	697	
0	0	0	0	0	319	696	
1	0	0	0	0	320	697	
2	0	0	0	0	321	697	
3	0	0	0	0	322	697	
4	0	0	0	0	322	697	
5	0	0	0	0	323	697	
6	0	0	0	0	325	697	
7	0	0	0	0	325	697	
8	0	0	0	0	326	697	
9	0	0	0	0	327	697	
10	0	0	0	0	328	697	
11	0	0	0	0	329	697	
12	0	0	0	0	330	697	
13	0	0	0	0	329	697	
14	0	0	0	0	327	697	
15	0	0	0	0	327	697	
0	0	0	0	0	327	697	
1	0	0	0	0	327	697	
2	0	0	0	0	327	697	
3	0	0	0	0	329	697	
4	0	0	0	0	333	697	
5	0	0	0	0	337	698	
6	0	0	0	0	339	698	
7	0	0	0	0	341	697	
8	0	0	0	0	343	697	
9	0	0	0	0	343	697	
10	0	0	0	0	343	697	
11	0	0	0	0	342	697	
12	0	0	0	0	342	698	
13	0	0	0	0	341	698	
14	0	0	0	0	341	698	
15	0	0	0	0	343	698	
0	0	0	0	0	344	697	
1	0	0	0	0	345	698	
2	0	0	0	0	345	698	
3	0	0	0	0	345	698	
4	0	0	0	0	345	698	
5	0	0	0	0	345	698	
6	0	0	0	0	346	699	
7	0	0	0	0	344	698	
8	0	0	0	0	344	698	
9	0	0	0	0	345	698	
10	0	0	0	0	346	698	
11	0	0	0	0	345	698	
12	0	0	0	0	345	699	
13	0	0	0	0	346	698	
14	0	0	0	0	346	698	
15	0	0	0	0	347	698	
0	0	0	0	0	350	698	
1	0	0	0	0	354	698	
2	0	0	0	0	359	698	
3	0	0	0	0	362	698	
4	0	0	0	0	364	698	
5	0	0	0	0	366	699	
6	0	0	0	0	368	699	
7	0	0	0	0	369	699	
8	0	0	0	0	371	699	
9	0	0	0	0	374	698	
10	0	0	0	0	376	699	
11	0	0	0	0	376	699	
12	0	0	0	0	376	698	
13	0	0	0	0	376	699	
14	0	0	0	0	376	698	
15	0	0	0	0	376	699	
0	0	0	0	0	376	699	
1	0	0	0	0	376	699	
2	0	0	0	0	377	699	
3	0	0	0	0	379	699	
4	0	0	0	0	382	699	
5	0	0	0	0	384	699	
6	0	0	0	0	385	699	
7	0	0	0	0	386	699	
8	0	0	0	0	387	699	
9	0	0	0	0	388	699	
10	0	0	0	0	389	699	
11	0	0	0	0	391	699	
12	0	0	0	0	390	699	
13	0	0	0	0	390	699	
14	0	0	0	0	391	700	
15	0	0	0	0	391	699	
0	0	0	0	0	393	699	
1	0	0	0	0	392	699	
2	0	0	0	0	393	699	
3	0	0	0	0	397	700	
4	0	0	0	0	399	699	
5	0	0	0	0	400	699	
6	0	0	0	0	400	700	
7	0	0	0	0	400	699	
8	0	0	0	0	399	700	
9	0	0	0	0	400	700	
10	0	0	0	0	402	699	
11	0	0	0	0	403	700	
12	0	0	0	0	403	700	
13	0	0	0	0	404	700	
14	0	0	0	0	404	700	
15	0	0	0	0	407	700	
0	0	0	0	0	409	700	
1	0	0	0	0	412	699	
2	0	0	0	0	414	700	
3	0	0	0	0	416	700	
4	0	0	0	0	417	700	
5	0	0	0	0	420	700	
6	0	0	0	0	423	700	
7	0	0	0	0	427	700	
8	0	0	0	0	431	700	
9	0	0	0	0	432	700	
10	0	0	0	0	432	700	
11	0	0	0	0	432	700	
12	0	0	0	0	433	700	
13	0	0	0	0	434	700	
14	0	0	0	0	433	700	
15	0	0	0	0	433	700	
0	0	0	0	0	433	700	
1	0	0	0	0	435	700	
2	0	0	0	0	435	700	
3	0	0	0	0	436	700	
4	0	0	0	0	437	700	
5	0	0	0	0	437	700	
6	0	0	0	0	436	700	
7	0	0	0	0	437	700	
8	0	0	0	0	438	700	
9	0	0	0	0	440	700	
10	0	0	0	0	443	700	
11	0	0	0	0	446	700	
12	0	0	0	0	447	700	
13	0	0	0	0	448	700	
14	0	0	0	0	447	701	
15	0	0	0	0	449	700	
0	0	0	0	0	451	701	
1	0	0	0	0	454	700	
2	0	0	0	0	454	700	
3	0	0	0	0	455	700	
4	0	0	0	0	456	700	
5	0	0	0	0	459	700	
6	0	0	0	0	460	700	
7	0	0	0	0	463	701	
8	0	0	0	0	466	701	
9	0	0	0	0	468	700	
10	0	0	0	0	470	701	
11	0	0	0	0	470	700	
12	0	0	0	0	468	701	
13	0	0	0	0	466	701	
14	0	0	0	0	463	701	
15	0	0	0	0	461	701	
0	0	0	0	0	459	701	
1	0	0	0	0	457	701	
2	0	0	0	0	455	701	
3	0	0	0	0	453	701	
4	0	0	0	0	452	701	
5	0	0	0	0	451	701	
6	0	0	0	0	450	701	
7	0	0	0	0	449	701	
8	0	0	0	0	449	701	
9	0	0	0	0	449	701	
10	0	0	0	0	450	701	
11	0	0	0	0	452	701	
12	0	0	0	0	454	701	
13	0	0	0	0	455	701	
14	0	0	0	0	455	701	
15	0	0	0	0	455	702	
0	0	0	0	0	454	702	
1	0	0	0	0	453	702	
2	0	0	0	0	452	701	
3	0	0	0	0	451	702	
4	0	0	0	0	451	702	
5	0	0	0	0	451	701	
6	0	0	0	0	449	702	
7	0	0	0	0	448	701	
8	0	0	0	0	448	702	
9	0	0	0	0	449	702	
10	0	0	0	0	449	702	
11	0	0	0	0	450	702	
12	0	0	0	0	451	702	
13	0	0	0	0	452	702	
14	0	0	0	0	453	702	
15	0	0	0	0	453	702	
0	0	0	0	0	451	702	
1	0	0	0	0	450	702	
2	0	0	0	0	449	702	
3	0	0	0	0	449	702	
4	0	0	0	0	450	702	
5	0	0	0	0	451	702	
6	0	0	0	0	453	702	
7	0	0	0	0	454	702	
8	0	0	0	0	454	702	
9	0	0	0	0	453	702	
10	0	0	0	0	451	702	
11	0	0	0	0	449	702	
12	0	0	0	0	448	703	
13	0	0	0	0	447	702	
14	0	0	0	0	447	702	
15	0	0	0	0	445	702	
0	0	0	0	0	443	703	
1	0	0	0	0	444	703	
2	0	0	0	0	442	703	
3	0	0	0	0	440	703	
4	0	0	0	0	441	703	
5	0	0	0	0	441	703	
6	0	0	0	0	441	703	
7	0	0	0	0	442	703	
8	0	0	0	0	444	702	
9	0	0	0	0	446	703	
10	0	0	0	0	448	703	
11	0	0	0	0	450	703	
12	0	0	0	0	450	703	
13	0	0	0	0	450	703	
14	0	0	0	0	451	703	
15	0	0	0	0	452	703	
0	0	0	0	0	453	703	
1	0	0	0	0	452	703	
2	0	0	0	0	454	703	
3	0	0	0	0	454	703	
4	0	0	0	0	455	703	
5	0	0	0	0	456	703	
6	0	0	0	0	459	703	
7	0	0	0	0	462	703	
8	0	0	0	0	464	703	
9	0	0	0	0	465	703	
10	0	0	0	0	468	704	
11	0	0	0	0	468	703	
12	0	0	0	0	468	704	
13	0	0	0	0	468	703	
14	0	0	0	0	467	704	
15	0	0	0	0	466	704	
0	0	0	0	0	463	704	
1	0	0	0	0	463	704	
2	0	0	0	0	463	704	
3	0	0	0	0	463	704	
4	0	0	0	0	465	704	
5	0	0	0	0	467	704	
6	0	0	0	0	468	704	
7	0	0	0	0	468	704	
8	0	0	0	0	467	704	
9	0	0	0	0	467	704	
10	0	0	0	0	466	704	
11	0	0	0	0	467	704	
12	0	0	0	0	470	704	
13	0	0	0	0	472	704	
14	0	0	0	0	474	704	
15	0	0	0	0	476	704	
0	0	0	0	0	477	704	
1	0	0	0	0	478	704	
2	0	0	0	0	479	704	
3	0	0	0	0	480	704	
4	0	0	0	0	480	704	
5	0	0	0	0	479	704	
6	0	0	0	0	479	704	
7	0	0	0	0	479	704	
8	0	0	0	0	481	705	
9	0	0	0	0	484	704	
10	0	0	0	0	484	704	
11	0	0	0	0	487	704	
12	0	0	0	0	489	704	
13	0	0	0	0	490	705	
14	0	0	0	0	490	705	
15	0	0	0	0	489	705	
0	0	0	0	0	487	705	
1	0	0	0	0	487	704	
2	0	0	0	0	487	705	
3	0	0	0	0	488	705	
4	0	0	0	0	489	705	
5	0	0	0	0	490	705	
6	0	0	0	0	491	704	
7	0	0	0	0	495	705	
8	0	0	0	0	497	705	
9	0	0	0	0	499	705	
10	0	0	0	0	503	705	
11	0	0	0	0	506	705	
12	0	0	0	0	509	705	
13	0	0	0	0	511	705	
14	0	0	0	0	512	705	
15	0	0	0	0	513	705	
0	0	0	0	0	515	705	
1	0	0	0	0	517	705	
2	0	0	0	0	517	705	
3	0	0	0	0	518	705	
4	0	0	0	0	518	705	
5	0	0	0	0	519	705	
6	0	0	0	0	519	706	
7	0	0	0	0	519	705	
8	0	0	0	0	519	705	
9	0	0	0	0	519	705	
10	0	0	0	0	521	705	
11	0	0	0	0	521	706	
12	0	0	0	0	522	705	
13	0	0	0	0	523	705	
14	0	0	0	0	524	705	
15	0	0	0	0	526	705	
0	0	0	0	0	529	705	
1	0	0	0	0	531	705	
2	0	0	0	0	531	706	
3	0	0	0	0	531	706	
4	0	0	0	0	529	706	
5	0	0	0	0	528	706	
6	0	0	0	0	526	706	
7	0	0	0	0	525	706	
8	0	0	0	0	526	706	
9	0	0	0	0	528	706	
10	0	0	0	0	530	706	
11	0	0	0	0	532	706	
12	0	0	0	0	533	706	
13	0	0	0	0	536	706	
14	0	0	0	0	540	706	
15	0	0	0	0	543	706	
0	0	0	0	0	544	706	
1	0	0	0	0	546	706	
2	0	0	0	0	547	706	
3	0	0	0	0	547	706	
4	0	0	0	0	548	707	
5	0	0	0	0	550	706	
6	0	0	0	0	551	706	
7	0	0	0	0	553	706	
8	0	0	0	0	553	706	
9	0	0	0	0	552	707	
10	0	0	0	0	551	706	
11	0	0	0	0	551	706	
12	0	0	0	0	553	707	
13	0	0	0	0	553	706	
14	0	0	0	0	553	707	
15	0	0	0	0	553	707	
0	0	0	0	0	554	706	
1	0	0	0	0	553	707	
2	0	0	0	0	552	707	
3	0	0	0	0	552	707	
4	0	0	0	0	552	707	
5	0	0	0	0	553	707	
6	0	0	0	0	553	707	
7	0	0	0	0	553	707	
8	0	0	0	0	553	707	
9	0	0	0	0	554	707	
10	0	0	0	0	555	707	
11	0	0	0	0	556	707	
12	0	0	0	0	558	707	
13	0	0	0	0	560	707	
14	0	0	0	0	561	707	
15	0	0	0	0	563	707	
0	0	0	0	0	563	707	
1	0	0	0	0	562	707	
2	0	0	0	0	560	707	
3	0	0	0	0	561	707	
4	0	0	0	0	561	707	
5	0	0	0	0	561	707	
6	0	0	0	0	560	707	
7	0	0	0	0	559	707	
8	0	0	0	0	558	707	
9	0	0	0	0	558	707	
10	0	0	0	0	558	707	
11	0	0	0	0	559	707	
12	0	0	0	0	559	707	
13	0	0	0	0	560	707	
14	0	0	0	0	561	707	
15	0	0	0	0	563	707	
0	0	0	0	0	566	707	
1	0	0	0	0	567	707	
2	0	0	0	0	569	707	
3	0	0	0	0	572	708	
4	0	0	0	0	574	707	
5	0	0	0	0	575	707	
6	0	0	0	0	575	707	
7	0	0	0	0	575	708	
8	0	0	0	0	575	708	
9	0	0	0	0	575	707	
10	0	0	0	0	576	707	
11	0	0	0	0	580	708	
12	0	0	0	0	583	708	
13	0	0	0	0	584	708	
14	0	0	0	0	587	707	
15	0	0	0	0	588	707	
0	0	0	0	0	589	707	
1	0	0	0	0	588	708	
2	0	0	0	0	588	708	
3	0	0	0	0	586	708	
4	0	0	0	0	586	707	
5	0	0	0	0	588	708	
6	0	0	0	0	591	708	
7	0	0	0	0	594	708	
8	0	0	0	0	594	708	
9	0	0	0	0	594	708	
10	0	0	0	0	595	708	
11	0	0	0	0	596	708	
12	0	0	0	0	596	708	
13	0	0	0	0	595	708	
14	0	0	0	0	595	708	
15	0	0	0	0	594	708	
0	0	0	0	0	594	708	
1	0	0	0	0	594	708	
2	0	0	0	0	595	708	
3	0	0	0	0	596	708	
4	0	0	0	0	598	708	
5	0	0	0	0	599	708	
6	0	0	0	0	601	709	
7	0	0	0	0	601	708	
8	0	0	0	0	601	708	
9	0	0	0	0	602	708	
10	0	0	0	0	601	708	
11	0	0	0	0	602	708	
12	0	0	0	0	603	708	
13	0	0	0	0	604	708	
14	0	0	0	0	605	708	
15	0	0	0	0	607	708	
0	0	0	0	0	607	708	
1	0	0	0	0	607	708	
2	0	0	0	0	608	708	
3	0	0	0	0	609	708	
4	0	0	0	0	609	708	
5	0	0	0	0	608	708	
6	0	0	0	0	608	709	
7	0	0	0	0	609	709	
8	0	0	0	0	611	709	
9	0	0	0	0	611	709	
10	0	0	0	0	610	709	
11	0	0	0	0	609	708	
12	0	0	0	0	606	708	
13	0	0	0	0	603	709	
14	0	0	0	0	600	708	
15	0	0	0	0	596	709	
0	0	0	0	0	593	708	
1	0	0	0	0	590	708	
2	0	0	0	0	588	709	
3	0	0	0	0	585	709	
4	0	0	0	0	583	709	
5	0	0	0	0	584	709	
6	0	0	0	0	586	709	
7	0	0	0	0	588	710	
8	0	0	0	0	589	709	
9	0	0	0	0	590	709	
10	0	0	0	0	590	709	
11	0	0	0	0	590	709	
12	0	0	0	0	591	709	
13	0	0	0	0	591	709	
14	0	0	0	0	592	709	
15	0	0	0	0	592	709	
0	0	0	0	0	593	709	
1	0	0	0	0	595	709	
2	0	0	0	0	598	709	
3	0	0	0	0	599	709	
4	0	0	0	0	598	709	
5	0	0	0	0	597	709	
6	0	0	0	0	596	709	
7	0	0	0	0	593	710	
8	0	0	0	0	590	710	
9	0	0	0	0	584	709	
10	0	0	0	0	580	710	
11	0	0	0	0	578	710	
12	0	0	0	0	575	710	
13	0	0	0	0	574	710	
14	0	0	0	0	574	710	
15	0	0	0	0	575	710	
0	0	0	0	0	576	710	
1	0	0	0	0	577	709	
2	0	0	0	0	577	710	
3	0	0	0	0	578	710	
4	0	0	0	0	578	710	
5	0	0	0	0	579	710	
6	0	0	0	0	578	710	
7	0	0	0	0	578	710	
8	0	0	0	0	579	710	
9	0	0	0	0	579	710	
10	0	0	0	0	579	710	
11	0	0	0	0	579	710	
12	0	0	0	0	579	710	
13	0	0	0	0	578	710	
14	0	0	0	0	580	710	
15	0	0	0	0	582	710	
0	0	0	0	0	584	710	
1	0	0	0	0	586	710	
2	0	0	0	0	585	710	
3	0	0	0	0	586	710	
4	0	0	0	0	587	710	
5	0	0	0	0	590	710	
6	0	0	0	0	590	711	
7	0	0	0	0	590	710	
8	0	0	0	0	590	710	
9	0	0	0	0	590	710	
10	0	0	0	0	590	710	
11	0	0	0	0	590	710	
12	0	0	0	0	588	711	
13	0	0	0	0	588	710	
14	0	0	0	0	589	711	
15	0	0	0	0	590	711	
0	0	0	0	0	590	710	
1	0	0	0	0	590	710	
2	0	0	0	0	591	710	
3	0	0	0	0	592	711	
4	0	0	0	0	593	710	
5	0	0	0	0	594	711	
6	0	0	0	0	596	711	
7	0	0	0	0	599	710	
8	0	0	0	0	601	711	
9	0	0	0	0	601	711	
10	0	0	0	0	599	711	
11	0	0	0	0	598	711	
12	0	0	0	0	596	711	
13	0	0	0	0	594	711	
14	0	0	0	0	593	711	
15	0	0	0	0	593	711	
0	0	0	0	0	593	711	
1	0	0	0	0	593	711	
2	0	0	0	0	593	711	
3	0	0	0	0	593	711	
4	0	0	0	0	592	711	
5	0	0	0	0	590	711	
6	0	0	0	0	588	711	
7	0	0	0	0	585	711	
8	0	0	0	0	583	711	
9	0	0	0	0	581	711	
10	0	0	0	0	579	711	
11	0	0	0	0	577	711	
12	0	0	0	0	574	711	
13	0	0	0	0	573	711	
14	0	0	0	0	572	711	
15	0	0	0	0	571	711	
0	0	0	0	0	575	711	
1	0	0	0	0	580	711	
2	0	0	0	0	587	711	
3	0	0	0	0	594	711	
4	0	0	0	0	603	711	
5	0	0	0	0	612	711	
6	0	0	0	0	623	711	
7	0	0	0	0	632	711	
8	0	0	0	0	641	711	
9	0	0	0	0	651	711	
10	0	0	0	0	659	711	
11	0	0	0	0	670	711	
12	0	0	0	0	681	711	
13	0	0	0	0	694	711	
14	0	0	0	0	709	711	
15	0	0	0	0	726	711	
0	0	0	0	0	744	711	
1	0	0	0	0	764	711	
2	0	0	0	0	784	711	
3	0	0	0	0	806	711	
4	0	0	0	0	832	711	
5	0	0	0	0	861	711	
6	0	0	0	0	890	711	
7	0	0	0	0	920	710	
8	0	0	0	0	944	710	
9	0	0	0	0	953	711	
10	0	0	0	0	948	711	
11	0	0	0	0	935	711	
12	0	0	0	0	917	711	
13	0	0	0	0	897	711	
14	0	0	0	0	872	711	
15	0	0	0	0	841	711	
0	0	0	0	0	808	711	
1	0	0	0	0	779	711	
2	0	0	0	0	755	711	
3	0	0	0	0	731	711	
4	0	0	0	0	707	711	
5	0	0	0	0	684	711	
6	0	0	0	0	660	711	
7	0	0	0	0	638	711	
8	0	0	0	0	618	711	
9	0	0	0	0	604	712	
10	0	0	0	0	591	711	
11	0	0	0	0	581	711	
12	0	0	0	0	570	711	
13	0	0	0	0	559	711	
14	0	0	0	0	548	712	
15	0	0	0	0	538	711	
0	0	0	0	0	530	712	
1	0	0	0	0	524	712	
2	0	0	0	0	521	711	
3	0	0	0	0	519	712	
4	0	0	0	0	519	712	
5	0	0	0	0	520	712	
6	0	0	0	0	524	712	
7	0	0	0	0	527	711	
8	0	0	0	0	531	712	
9	0	0	0	0	538	712	
10	0	0	0	0	546	712	
11	0	0	0	0	552	712	
12	0	0	0	0	558	712	
13	0	0	0	0	562	712	
14	0	0	0	0	564	712	
15	0	0	0	0	566	712	
0	0	0	0	0	566	712	
1	0	0	0	0	566	712	
2	0	0	0	0	566	712	
3	0	0	0	0	566	712	
4	0	0	0	0	568	712	
5	0	0	0	0	568	712	
6	0	0	0	0	568	712	
7	0	0	0	0	570	712	
8	0	0	0	0	572	712	
9	0	0	0	0	575	712	
10	0	0	0	0	577	712	
11	0	0	0	0	578	712	
12	0	0	0	0	580	712	
13	0	0	0	0	582	712	
14	0	0	0	0	583	712	
15	0	0	0	0	584	712	
0	0	0	0	0	585	712	
1	0	0	0	0	585	713	
2	0	0	0	0	585	712	
3	0	0	0	0	586	712	
4	0	0	0	0	585	713	
5	0	0	0	0	582	712	
6	0	0	0	0	581	712	
7	0	0	0	0	582	712	
8	0	0	0	0	582	713	
9	0	0	0	0	584	712	
10	0	0	0	0	588	712	
11	0	0	0	0	591	713	
12	0	0	0	0	592	712	
13	0	0	0	0	595	713	
14	0	0	0	0	597	712	
15	0	0	0	0	598	712	
0	0	0	0	0	599	713	
1	0	0	0	0	599	713	
2	0	0	0	0	598	713	
3	0	0	0	0	596	713	
4	0	0	0	0	596	712	
5	0	0	0	0	598	713	
6	0	0	0	0	598	712	
7	0	0	0	0	599	713	
8	0	0	0	0	600	713	
9	0	0	0	0	601	712	
10	0	0	0	0	604	713	
11	0	0	0	0	604	713	
12	0	0	0	0	605	713	
13	0	0	0	0	606	713	
14	0	0	0	0	607	713	
15	0	0	0	0	608	713	
0	0	0	0	0	609	713	
1	0	0	0	0	609	713	
2	0	0	0	0	607	713	
3	0	0	0	0	606	713	
4	0	0	0	0	605	713	
5	0	0	0	0	605	713	
6	0	0	0	0	608	713	
7	0	0	0	0	610	713	
8	0	0	0	0	610	713	
9	0	0	0	0	610	713	
10	0	0	0	0	609	713	
11	0	0	0	0	612	713	
12	0	0	0	0	615	713	
13	0	0	0	0	615	713	
14	0	0	0	0	615	713	
15	0	0	0	0	614	713	
0	0	0	0	0	614	713	
1	0	0	0	0	615	713	
2	0	0	0	0	617	713	
3	0	0	0	0	619	713	
4	0	0	0	0	617	713	
5	0	0	0	0	616	713	
6	0	0	0	0	615	713	
7	0	0	0	0	615	713	
8	0	0	0	0	617	713	
9	0	0	0	0	617	713	
10	0	0	0	0	618	713	
11	0	0	0	0	620	713	
12	0	0	0	0	621	713	
13	0	0	0	0	622	713	
14	0	0	0	0	622	713	
15	0	0	0	0	622	713	
0	0	0	0	0	622	713	
1	0	0	0	0	622	713	
2	0	0	0	0	624	713	
3	0	0	0	0	624	713	
4	0	0	0	0	625	713	
5	0	0	0	0	624	713	
6	0	0	0	0	624	713	
7	0	0	0	0	625	713	
8	0	0	0	0	626	713	
9	0	0	0	0	628	713	
10	0	0	0	0	629	713	
11	0	0	0	0	629	713	
12	0	0	0	0	630	713	
13	0	0	0	0	630	713	
14	0	0	0	0	632	713	
15	0	0	0	0	632	713	
0	0	0	0	0	630	713	
1	0	0	0	0	629	713	
2	0	0	0	0	628	713	
3	0	0	0	0	627	713	
4	0	0	0	0	626	713	
5	0	0	0	0	624	713	
6	0	0	0	0	624	713	
7	0	0	0	0	625	713	
8	0	0	0	0	626	713	
9	0	0	0	0	627	713	
10	0	0	0	0	630	713	
11	0	0	0	0	633	713	
12	0	0	0	0	635	713	
13	0	0	0	0	636	713	
14	0	0	0	0	636	713	
15	0	0	0	0	638	713	
0	0	0	0	0	639	714	
1	0	0	0	0	639	713	
2	0	0	0	0	638	714	
3	0	0	0	0	637	713	
4	0	0	0	0	637	713	
5	0	0	0	0	638	713	
6	0	0	0	0	637	713	
7	0	0	0	0	638	714	
8	0	0	0	0	638	713	
9	0	0	0	0	638	713	
10	0	0	0	0	638	713	
11	0	0	0	0	638	713	
12	0	0	0	0	638	713	
13	0	0	0	0	639	713	
14	0	0	0	0	638	713	
15	0	0	0	0	639	713	
0	0	0	0	0	640	713	
1	0	0	0	0	641	714	
2	0	0	0	0	642	713	
3	0	0	0	0	642	713	
4	0	0	0	0	641	713	
5	0	0	0	0	641	714	
6	0	0	0	0	641	714	
7	0	0	0	0	641	713	
8	0	0	0	0	640	713	
9	0	0	0	0	640	714	
10	0	0	0	0	640	713	
11	0	0	0	0	639	713	
12	0	0	0	0	638	714	
13	0	0	0	0	638	713	
14	0	0	0	0	638	713	
15	0	0	0	0	639	713	
0	0	0	0	0	639	714	
1	0	0	0	0	639	713	
2	0	0	0	0	641	713	
3	0	0	0	0	644	713	
4	0	0	0	0	646	714	
5	0	0	0	0	646	714	
6	0	0	0	0	646	713	
7	0	0	0	0	647	714	
8	0	0	0	0	648	714	
9	0	0	0	0	647	713	
10	0	0	0	0	646	713	
11	0	0	0	0	646	713	
12	0	0	0	0	648	713	
13	0	0	0	0	649	713	
14	0	0	0	0	650	713	
15	0	0	0	0	651	713	
0	0	0	0	0	652	713	
1	0	0	0	0	653	713	
2	0	0	0	0	654	714	
3	0	0	0	0	653	713	
4	0	0	0	0	654	714	
5	0	0	0	0	654	713	
6	0	0	0	0	655	714	
7	0	0	0	0	655	714	
8	0	0	0	0	654	714	
9	0	0	0	0	654	713	
10	0	0	0	0	655	713	
11	0	0	0	0	657	713	
12	0	0	0	0	657	713	
13	0	0	0	0	657	713	
14	0	0	0	0	656	713	
15	0	0	0	0	654	714	
0	0	0	0	0	652	713	
1	0	0	0	0	651	713	
2	0	0	0	0	651	713	
3	0	0	0	0	652	714	
4	0	0	0	0	652	713	
5	0	0	0	0	651	713	
6	0	0	0	0	651	714	
7	0	0	0	0	649	714	
8	0	0	0	0	649	714	
9	0	0	0	0	648	714	
10	0	0	0	0	649	713	
11	0	0	0	0	649	714	
12	0	0	0	0	649	713	
13	0	0	0	0	650	713	
14	0	0	0	0	649	714	
15	0	0	0	0	647	713	
0	0	0	0	0	648	714	
1	0	0	0	0	647	713	
2	0	0	0	0	648	713	
3	0	0	0	0	649	713	
4	0	0	0	0	649	713	
5	0	0	0	0	647	714	
6	0	0	0	0	643	714	
7	0	0	0	0	640	714	
8	0	0	0	0	635	714	
9	0	0	0	0	632	713	
10	0	0	0	0	630	714	
11	0	0	0	0	628	713	
12	0	0	0	0	628	714	
13	0	0	0	0	629	713	
14	0	0	0	0	629	713	
15	0	0	0	0	630	714	
0	0	0	0	0	630	713	
1	0	0	0	0	632	713	
2	0	0	0	0	633	713	
3	0	0	0	0	634	713	
4	0	0	0	0	633	714	
5	0	0	0	0	631	714	
6	0	0	0	0	630	714	
7	0	0	0	0	627	714	
8	0	0	0	0	624	714	
9	0	0	0	0	622	714	
10	0	0	0	0	618	713	
11	0	0	0	0	616	714	
12	0	0	0	0	613	713	
13	0	0	0	0	611	713	
14	0	0	0	0	609	714	
15	0	0	0	0	608	713	
0	0	0	0	0	608	713	
1	0	0	0	0	609	713	
2	0	0	0	0	609	713	
3	0	0	0	0	610	714	
4	0	0	0	0	609	714	
5	0	0	0	0	607	714	
6	0	0	0	0	604	714	
7	0	0	0	0	601	713	
8	0	0	0	0	600	714	
9	0	0	0	0	597	714	
10	0	0	0	0	594	714	
11	0	0	0	0	593	714	
12	0	0	0	0	592	713	
13	0	0	0	0	590	714	
14	0	0	0	0	588	714	
15	0	0	0	0	585	714	
0	0	0	0	0	582	714	
1	0	0	0	0	579	713	
2	0	0	0	0	579	714	
3	0	0	0	0	577	714	
4	0	0	0	0	577	713	
5	0	0	0	0	576	714	
6	0	0	0	0	577	713	
7	0	0	0	0	576	714	
8	0	0	0	0	575	714	
9	0	0	0	0	575	714	
10	0	0	0	0	575	714	
11	0	0	0	0	571	714	
12	0	0	0	0	568	714	
13	0	0	0	0	567	714	
14	0	0	0	0	567	714	
15	0	0	0	0	568	714	
0	0	0	0	0	569	713	
1	0	0	0	0	569	714	
2	0	0	0	0	568	714	
3	0	0	0	0	569	714	
4	0	0	0	0	570	714	
5	0	0	0	0	568	714	
6	0	0	0	0	568	714	
7	0	0	0	0	566	714	
8	0	0	0	0	565	714	
9	0	0	0	0	564	714	
10	0	0	0	0	564	714	
11	0	0	0	0	563	715	
12	0	0	0	0	561	714	
13	0	0	0	0	560	714	
14	0	0	0	0	560	714	
15	0	0	0	0	560	714	
0	0	0	0	0	560	714	
1	0	0	0	0	561	714	
2	0	0	0	0	562	714	
3	0	0	0	0	563	714	
4	0	0	0	0	564	714	
5	0	0	0	0	565	714	
6	0	0	0	0	566	714	
7	0	0	0	0	563	714	
8	0	0	0	0	562	714	
9	0	0	0	0	562	714	
10	0	0	0	0	562	715	
11	0	0	0	0	561	714	
12	0	0	0	0	560	715	
13	0	0	0	0	560	714	
14	0	0	0	0	560	714	
15	0	0	0	0	559	715	
0	0	0	0	0	560	714	
1	0	0	0	0	559	714	
2	0	0	0	0	559	714	
3	0	0	0	0	559	714	
4	0	0	0	0	559	714	
5	0	0	0	0	559	714	
6	0	0	0	0	559	714	
7	0	0	0	0	558	714	
8	0	0	0	0	557	714	
9	0	0	0	0	556	714	
10	0	0	0	0	556	715	
11	0	0	0	0	556	714	
12	0	0	0	0	556	715	
13	0	0	0	0	556	714	
14	0	0	0	0	554	715	
15	0	0	0	0	553	714	
0	0	0	0	0	554	714	
1	0	0	0	0	555	714	
2	0	0	0	0	556	714	
3	0	0	0	0	557	714	
4	0	0	0	0	559	714	
5	0	0	0	0	562	714	
6	0	0	0	0	565	714	
7	0	0	0	0	567	715	
8	0	0	0	0	569	715	
9	0	0	0	0	570	715	
10	0	0	0	0	569	714	
11	0	0	0	0	567	715	
12	0	0	0	0	564	714	
13	0	0	0	0	561	715	
14	0	0	0	0	559	715	
15	0	0	0	0	558	714	
0	0	0	0	0	556	714	
1	0	0	0	0	556	714	
2	0	0	0	0	556	715	
3	0	0	0	0	555	714	
4	0	0	0	0	555	715	
5	0	0	0	0	557	714	
6	0	0	0	0	560	714	
7	0	0	0	0	562	715	
8	0	0	0	0	565	715	
9	0	0	0	0	568	715	
10	0	0	0	0	569	715	
11	0	0	0	0	569	714	
12	0	0	0	0	570	715	
13	0	0	0	0	569	715	
14	0	0	0	0	568	715	
15	0	0	0	0	568	714	
0	0	0	0	0	568	714	
1	0	0	0	0	568	715	
2	0	0	0	0	568	714	
3	0	0	0	0	567	714	
4	0	0	0	0	567	714	
5	0	0	0	0	568	714	
6	0	0	0	0	568	714	
7	0	0	0	0	569	715	
8	0	0	0	0	570	714	
9	0	0	0	0	571	714	
10	0	0	0	0	571	714	
11	0	0	0	0	570	715	
12	0	0	0	0	570	715	
13	0	0	0	0	570	715	
14	0	0	0	0	571	715	
15	0	0	0	0	570	715	
0	0	0	0	0	570	715	
1	0	0	0	0	569	715	
2	0	0	0	0	568	715	
3	0	0	0	0	566	715	
4	0	0	0	0	563	714	
5	0	0	0	0	563	714	
6	0	0	0	0	564	714	
7	0	0	0	0	564	714	
8	0	0	0	0	566	714	
9	0	0	0	0	567	714	
10	0	0	0	0	567	715	
11	0	0	0	0	568	715	
12	0	0	0	0	568	715	
13	0	0	0	0	569	715	
14	0	0	0	0	571	715	
15	0	0	0	0	571	715	
0	0	0	0	0	570	714	
1	0	0	0	0	570	715	
2	0	0	0	0	569	715	
3	0	0	0	0	568	714	
4	0	0	0	0	568	715	
5	0	0	0	0	568	714	
6	0	0	0	0	567	715	
7	0	0	0	0	567	715	
8	0	0	0	0	567	714	
9	0	0	0	0	569	715	
10	0	0	0	0	570	714	
11	0	0	0	0	569	715	
12	0	0	0	0	569	715	
13	0	0	0	0	568	714	
14	0	0	0	0	567	715	
15	0	0	0	0	566	715	
0	0	0	0	0	567	715	
1	0	0	0	0	568	715	
2	0	0	0	0	569	714	
3	0	0	0	0	570	715	
4	0	0	0	0	570	715	
5	0	0	0	0	573	715	
6	0	0	0	0	575	714	
7	0	0	0	0	577	714	
8	0	0	0	0	579	715	
9	0	0	0	0	581	714	
10	0	0	0	0	583	714	
11	0	0	0	0	583	715	
12	0	0	0	0	583	714	
13	0	0	0	0	583	715	
14	0	0	0	0	582	715	
15	0	0	0	0	582	715	
0	0	0	0	0	583	715	
1	0	0	0	0	584	714	
2	0	0	0	0	584	715	
3	0	0	0	0	586	715	
4	0	0	0	0	586	714	
5	0	0	0	0	586	715	
6	0	0	0	0	586	714	
7	0	0	0	0	587	715	
8	0	0	0	0	588	714	
9	0	0	0	0	589	714	
10	0	0	0	0	590	714	
11	0	0	0	0	591	715	
12	0	0	0	0	591	715	
13	0	0	0	0	590	714	
14	0	0	0	0	588	714	
15	0	0	0	0	589	715	
0	0	0	0	0	590	714	
1	0	0	0	0	589	715	
2	0	0	0	0	588	714	
3	0	0	0	0	587	714	
4	0	0	0	0	585	714	
5	0	0	0	0	583	714	
6	0	0	0	0	583	714	
7	0	0	0	0	583	714	
8	0	0	0	0	582	714	
9	0	0	0	0	582	714	
10	0	0	0	0	580	714	
11	0	0	0	0	580	715	
12	0	0	0	0	580	714	
13	0	0	0	0	581	715	
14	0	0	0	0	583	715	
15	0	0	0	0	582	714	
0	0	0	0	0	583	714	
1	0	0	0	0	583	714	
2	0	0	0	0	583	714	
3	0	0	0	0	583	714	
4	0	0	0	0	582	714	
5	0	0	0	0	581	714	
6	0	0	0	0	579	714	
7	0	0	0	0	576	714	
8	0	0	0	0	575	714	
9	0	0	0	0	574	714	
10	0	0	0	0	574	714	
11	0	0	0	0	575	714	
12	0	0	0	0	576	714	
13	0	0	0	0	576	714	
14	0	0	0	0	576	714	
15	0	0	0	0	577	715	
0	0	0	0	0	576	714	
1	0	0	0	0	575	714	
2	0	0	0	0	573	714	
3	0	0	0	0	571	714	
4	0	0	0	0	568	714	
5	0	0	0	0	563	714	
6	0	0	0	0	558	714	
7	0	0	0	0	554	714	
8	0	0	0	0	553	714	
9	0	0	0	0	552	714	
10	0	0	0	0	552	714	
11	0	0	0	0	550	714	
12	0	0	0	0	548	714	
13	0	0	0	0	548	714	
14	0	0	0	0	550	714	
15	0	0	0	0	551	714	
0	0	0	0	0	551	714	
1	0	0	0	0	552	714	
2	0	0	0	0	553	714	
3	0	0	0	0	555	714	
4	0	0	0	0	555	714	
5	0	0	0	0	553	714	
6	0	0	0	0	553	714	
7	0	0	0	0	552	714	
8	0	0	0	0	553	714	
9	0	0	0	0	554	714	
10	0	0	0	0	555	713	
11	0	0	0	0	554	713	
12	0	0	0	0	552	714	
13	0	0	0	0	551	714	
14	0	0	0	0	549	714	
15	0	0	0	0	550	714	
0	0	0	0	0	550	714	
1	0	0	0	0	550	714	
2	0	0	0	0	549	714	
3	0	0	0	0	548	714	
4	0	0	0	0	548	714	
5	0	0	0	0	547	714	
6	0	0	0	0	544	713	
7	0	0	0	0	542	714	
8	0	0	0	0	540	714	
9	0	0	0	0	537	714	
10	0	0	0	0	537	714	
11	0	0	0	0	536	713	
12	0	0	0	0	537	714	
13	0	0	0	0	538	714	
14	0	0	0	0	538	714	
15	0	0	0	0	540	714	
0	0	0	0	0	541	714	
1	0	0	0	0	542	714	
2	0	0	0	0	541	714	
3	0	0	0	0	542	714	
4	0	0	0	0	540	714	
5	0	0	0	0	540	714	
6	0	0	0	0	540	714	
7	0	0	0	0	540	714	
8	0	0	0	0	539	714	
9	0	0	0	0	538	714	
10	0	0	0	0	537	714	
11	0	0	0	0	536	714	
12	0	0	0	0	536	713	
13	0	0	0	0	538	714	
14	0	0	0	0	542	714	
15	0	0	0	0	545	714	
0	0	0	0	0	547	714	
1	0	0	0	0	548	714	
2	0	0	0	0	548	714	
3	0	0	0	0	550	714	
4	0	0	0	0	549	714	
5	0	0	0	0	546	714	
6	0	0	0	0	544	714	
7	0	0	0	0	544	714	
8	0	0	0	0	543	714	
9	0	0	0	0	542	714	
10	0	0	0	0	542	714	
11	0	0	0	0	542	714	
12	0	0	0	0	542	713	
13	0	0	0	0	542	714	
14	0	0	0	0	542	714	
15	0	0	0	0	543	714	
0	0	0	0	0	545	714	
1	0	0	0	0	547	714	
2	0	0	0	0	547	714	
3	0	0	0	0	546	714	
4	0	0	0	0	544	714	
5	0	0	0	0	542	714	
6	0	0	0	0	540	714	
7	0	0	0	0	537	714	
8	0	0	0	0	534	714	
9	0	0	0	0	531	714	
10	0	0	0	0	531	714	
11	0	0	0	0	530	714	
12	0	0	0	0	527	714	
13	0	0	0	0	525	714	
14	0	0	0	0	523	714	
15	0	0	0	0	521	713	
0	0	0	0	0	518	714	
1	0	0	0	0	516	714	
2	0	0	0	0	515	714	
3	0	0	0	0	516	714	
4	0	0	0	0	520	714	
5	0	0	0	0	524	714	
6	0	0	0	0	528	714	
7	0	0	0	0	533	713	
8	0	0	0	0	542	714	
9	0	0	0	0	551	714	
10	0	0	0	0	560	714	
11	0	0	0	0	569	713	
12	0	0	0	0	579	713	
13	0	0	0	0	588	713	
14	0	0	0	0	596	714	
15	0	0	0	0	604	713	
0	0	0	0	0	615	713	
1	0	0	0	0	627	713	
2	0	0	0	0	642	713	
3	0	0	0	0	659	713	
4	0	0	0	0	678	713	
5	0	0	0	0	696	713	
6	0	0	0	0	715	713	
7	0	0	0	0	733	713	
8	0	0	0	0	753	713	
9	0	0	0	0	775	713	
10	0	0	0	0	801	713	
11	0	0	0	0	829	713	
12	0	0	0	0	855	713	
13	0	0	0	0	869	713	
14	0	0	0	0	869	713	
15	0	0	0	0	860	713	
0	0	0	0	0	844	712	
1	0	0	0	0	825	713	
2	0	0	0	0	803	713	
3	0	0	0	0	776	713	
4	0	0	0	0	747	713	
5	0	0	0	0	717	713	
6	0	0	0	0	689	713	
7	0	0	0	0	663	713	
8	0	0	0	0	638	713	
9	0	0	0	0	613	713	
10	0	0	0	0	589	713	
11	0	0	0	0	566	713	
12	0	0	0	0	545	713	
13	0	0	0	0	527	713	
14	0	0	0	0	513	713	
15	0	0	0	0	503	713	
0	0	0	0	0	494	713	
1	0	0	0	0	486	713	
2	0	0	0	0	479	713	
3	0	0	0	0	472	713	
4	0	0	0	0	467	713	
5	0	0	0	0	465	714	
6	0	0	0	0	463	714	
7	0	0	0	0	462	714	
8	0	0	0	0	463	713	
9	0	0	0	0	465	713	
10	0	0	0	0	466	714	
11	0	0	0	0	468	713	
12	0	0	0	0	472	713	
13	0	0	0	0	475	713	
14	0	0	0	0	481	713	
15	0	0	0	0	487	714	
0	0	0	0	0	493	713	
1	0	0	0	0	496	713	
2	0	0	0	0	499	713	
3	0	0	0	0	499	713	
4	0	0	0	0	500	714	
5	0	0	0	0	502	714	
6	0	0	0	0	502	714	
7	0	0	0	0	502	714	
8	0	0	0	0	501	713	
9	0	0	0	0	502	714	
10	0	0	0	0	501	713	
11	0	0	0	0	502	714	
12	0	0	0	0	502	713	
13	0	0	0	0	504	713	
14	0	0	0	0	504	714	
15	0	0	0	0	502	713	
0	0	0	0	0	500	713	
1	0	0	0	0	500	713	
2	0	0	0	0	500	713	
3	0	0	0	0	502	714	
4	0	0	0	0	504	713	
5	0	0	0	0	505	713	
6	0	0	0	0	507	713	
7	0	0	0	0	508	713	
8	0	0	0	0	509	714	
9	0	0	0	0	509	714	
10	0	0	0	0	510	713	
11	0	0	0	0	512	713	
12	0	0	0	0	512	713	
13	0	0	0	0	512	713	
14	0	0	0	0	513	713	
15	0	0	0	0	514	713	
0	0	0	0	0	515	713	
1	0	0	0	0	514	713	
2	0	0	0	0	515	713	
3	0	0	0	0	517	713	
4	0	0	0	0	517	713	
5	0	0	0	0	517	713	
6	0	0	0	0	517	713	
7	0	0	0	0	519	713	
8	0	0	0	0	519	713	
9	0	0	0	0	521	714	
10	0	0	0	0	521	713	
11	0	0	0	0	521	713	
12	0	0	0	0	519	713	
13	0	0	0	0	519	713	
14	0	0	0	0	519	713	
15	0	0	0	0	519	713	
0	0	0	0	0	519	713	
1	0	0	0	0	518	713	
2	0	0	0	0	517	713	
3	0	0	0	0	518	713	
4	0	0	0	0	519	713	
5	0	0	0	0	521	713	
6	0	0	0	0	522	713	
7	0	0	0	0	524	713	
8	0	0	0	0	525	713	
9	0	0	0	0	524	713	
10	0	0	0	0	525	713	
11	0	0	0	0	526	713	
12	0	0	0	0	527	713	
13	0	0	0	0	528	713	
14	0	0	0	0	527	713	
15	0	0	0	0	527	713	
0	0	0	0	0	528	713	
1	0	0	0	0	529	713	
2	0	0	0	0	529	713	
3	0	0	0	0	531	713	
4	0	0	0	0	532	713	
5	0	0	0	0	534	713	
6	0	0	0	0	535	713	
7	0	0	0	0	536	713	
8	0	0	0	0	536	713	
9	0	0	0	0	536	713	
10	0	0	0	0	536	713	
11	0	0	0	0	536	713	
12	0	0	0	0	536	713	
13	0	0	0	0	534	713	
14	0	0	0	0	532	713	
15	0	0	0	0	533	713	
0	0	0	0	0	532	713	
1	0	0	0	0	533	713	
2	0	0	0	0	535	713	
3	0	0	0	0	536	712	
4	0	0	0	0	537	713	
5	0	0	0	0	536	713	
6	0	0	0	0	536	713	
7	0	0	0	0	535	713	
8	0	0	0	0	535	713	
9	0	0	0	0	537	713	
10	0	0	0	0	538	713	
11	0	0	0	0	539	713	
12	0	0	0	0	540	713	
13	0	0	0	0	542	713	
14	0	0	0	0	542	713	
15	0	0	0	0	542	713	
0	0	0	0	0	542	712	
1	0	0	0	0	543	713	
2	0	0	0	0	544	712	
3	0	0	0	0	545	713	
4	0	0	0	0	545	712	
5	0	0	0	0	546	713	
6	0	0	0	0	546	712	
7	0	0	0	0	545	712	
8	0	0	0	0	544	713	
9	0	0	0	0	543	713	
10	0	0	0	0	542	712	
11	0	0	0	0	541	713	
12	0	0	0	0	543	712	
13	0	0	0	0	545	713	
14	0	0	0	0	546	713	
15	0	0	0	0	547	712	
0	0	0	0	0	549	712	
1	0	0	0	0	551	712	
2	0	0	0	0	553	712	
3	0	0	0	0	554	712	
4	0	0	0	0	554	713	
5	0	0	0	0	555	712	
6	0	0	0	0	554	712	
7	0	0	0	0	553	712	
8	0	0	0	0	553	712	
9	0	0	0	0	555	712	
10	0	0	0	0	557	712	
11	0	0	0	0	557	712	
12	0	0	0	0	556	713	
13	0	0	0	0	557	713	
14	0	0	0	0	560	713	
15	0	0	0	0	562	712	
0	0	0	0	0	562	712	
1	0	0	0	0	561	712	
2	0	0	0	0	560	712	
3	0	0	0	0	560	712	
4	0	0	0	0	561	712	
5	0	0	0	0	561	712	
6	0	0	0	0	562	712	
7	0	0	0	0	564	712	
8	0	0	0	0	565	712	
9	0	0	0	0	564	712	
10	0	0	0	0	564	712	
11	0	0	0	0	563	712	
12	0	0	0	0	562	712	
13	0	0	0	0	562	712	
14	0	0	0	0	561	712	
15	0	0	0	0	558	712	
0	0	0	0	0	558	712	
1	0	0	0	0	558	712	
2	0	0	0	0	560	712	
3	0	0	0	0	561	712	
4	0	0	0	0	562	712	
5	0	0	0	0	563	712	
6	0	0	0	0	563	712	
7	0	0	0	0	565	712	
8	0	0	0	0	569	712	
9	0	0	0	0	572	712	
10	0	0	0	0	574	712	
11	0	0	0	0	575	712	
12	0	0	0	0	576	712	
13	0	0	0	0	577	712	
14	0	0	0	0	578	711	
15	0	0	0	0	579	712	
0	0	0	0	0	578	712	
1	0	0	0	0	575	712	
2	0	0	0	0	572	712	
3	0	0	0	0	569	711	
4	0	0	0	0	568	712	
5	0	0	0	0	568	712	
6	0	0	0	0	568	712	
7	0	0	0	0	568	711	
8	0	0	0	0	570	711	
9	0	0	0	0	572	712	
10	0	0	0	0	573	712	
11	0	0	0	0	573	712	
12	0	0	0	0	572	711	
13	0	0	0	0	573	711	
14	0	0	0	0	573	712	
15	0	0	0	0	574	712	
0	0	0	0	0	574	712	
1	0	0	0	0	573	712	
2	0	0	0	0	570	711	
3	0	0	0	0	568	712	
4	0	0	0	0	568	711	
5	0	0	0	0	568	711	
6	0	0	0	0	569	712	
7	0	0	0	0	571	711	
8	0	0	0	0	571	712	
9	0	0	0	0	572	711	
10	0	0	0	0	572	711	
11	0	0	0	0	572	711	
12	0	0	0	0	572	711	
13	0	0	0	0	572	712	
14	0	0	0	0	571	712	
15	0	0	0	0	569	711	
0	0	0	0	0	568	711	
1	0	0	0	0	567	711	
2	0	0	0	0	566	712	
3	0	0	0	0	567	711	
4	0	0	0	0	567	711	
5	0	0	0	0	567	711	
6	0	0	0	0	566	711	
7	0	0	0	0	566	711	
8	0	0	0	0	566	711	
9	0	0	0	0	567	711	
10	0	0	0	0	567	711	
11	0	0	0	0	566	711	
12	0	0	0	0	565	712	
13	0	0	0	0	563	711	
14	0	0	0	0	561	711	
15	0	0	0	0	559	711	
0	0	0	0	0	558	711	
1	0	0	0	0	558	711	
2	0	0	0	0	558	711	
3	0	0	0	0	558	711	
4	0	0	0	0	557	711	
5	0	0	0	0	556	711	
6	0	0	0	0	556	711	
7	0	0	0	0	558	711	
8	0	0	0	0	559	711	
9	0	0	0	0	558	711	
10	0	0	0	0	556	711	
11	0	0	0	0	556	711	
12	0	0	0	0	554	711	
13	0	0	0	0	553	711	
14	0	0	0	0	551	711	
15	0	0	0	0	548	711	
0	0	0	0	0	546	711	
1	0	0	0	0	545	711	
2	0	0	0	0	544	711	
3	0	0	0	0	545	711	
4	0	0	0	0	543	711	
5	0	0	0	0	541	711	
6	0	0	0	0	539	711	
7	0	0	0	0	535	711	
8	0	0	0	0	532	711	
9	0	0	0	0	529	711	
10	0	0	0	0	526	711	
11	0	0	0	0	523	711	
12	0	0	0	0	521	711	
13	0	0	0	0	519	711	
14	0	0	0	0	519	711	
15	0	0	0	0	520	711	
0	0	0	0	0	519	711	
1	0	0	0	0	521	711	
2	0	0	0	0	521	711	
3	0	0	0	0	521	711	
4	0	0	0	0	520	711	
5	0	0	0	0	520	711	
6	0	0	0	0	521	711	
7	0	0	0	0	520	711	
8	0	0	0	0	518	711	
9	0	0	0	0	517	711	
10	0	0	0	0	517	711	
11	0	0	0	0	516	711	
12	0	0	0	0	514	711	
13	0	0	0	0	514	711	
14	0	0	0	0	514	711	
15	0	0	0	0	514	711	
0	0	0	0	0	513	711	
1	0	0	0	0	511	711	
2	0	0	0	0	506	711	
3	0	0	0	0	503	711	
4	0	0	0	0	500	711	
5	0	0	0	0	496	711	
6	0	0	0	0	494	711	
7	0	0	0	0	492	711	
8	0	0	0	0	490	711	
9	0	0	0	0	490	711	
10	0	0	0	0	490	711	
11	0	0	0	0	491	711	
12	0	0	0	0	494	711	
13	0	0	0	0	496	711	
14	0	0	0	0	497	711	
15	0	0	0	0	498	711	
0	0	0	0	0	498	711	
1	0	0	0	0	500	711	
2	0	0	0	0	503	711	
3	0	0	0	0	504	711	
4	0	0	0	0	504	711	
5	0	0	0	0	503	711	
6	0	0	0	0	500	711	
7	0	0	0	0	498	711	
8	0	0	0	0	497	711	
9	0	0	0	0	498	711	
10	0	0	0	0	498	711	
11	0	0	0	0	498	711	
12	0	0	0	0	499	711	
13	0	0	0	0	501	711	
14	0	0	0	0	503	711	
15	0	0	0	0	505	711	
0	0	0	0	0	506	711	
1	0	0	0	0	505	711	
2	0	0	0	0	504	711	
3	0	0	0	0	504	711	
4	0	0	0	0	503	711	
5	0	0	0	0	502	711	
6	0	0	0	0	503	711	
7	0	0	0	0	502	711	
8	0	0	0	0	500	711	
9	0	0	0	0	500	711	
10	0	0	0	0	499	711	
11	0	0	0	0	498	711	
12	0	0	0	0	496	711	
13	0	0	0	0	496	711	
14	0	0	0	0	497	711	
15	0	0	0	0	499	711	
0	0	0	0	0	500	711	
1	0	0	0	0	500	711	
2	0	0	0	0	501	711	
3	0	0	0	0	499	711	
4	0	0	0	0	498	711	
5	0	0	0	0	498	711	
6	0	0	0	0	498	711	
7	0	0	0	0	498	711	
8	0	0	0	0	498	711	
9	0	0	0	0	499	711	
10	0	0	0	0	500	711	
11	0	0	0	0	502	711	
12	0	0	0	0	503	711	
13	0	0	0	0	504	711	
14	0	0	0	0	507	710	
15	0	0	0	0	509	711	
0	0	0	0	0	509	711	
1	0	0	0	0	508	711	
2	0	0	0	0	508	711	
3	0	0	0	0	509	711	
4	0	0	0	0	509	711	
5	0	0	0	0	508	711	
6	0	0	0	0	508	711	
7	0	0	0	0	508	711	
8	0	0	0	0	507	711	
9	0	0	0	0	508	711	
10	0	0	0	0	508	711	
11	0	0	0	0	508	711	
12	0	0	0	0	508	711	
13	0	0	0	0	508	711	
14	0	0	0	0	506	711	
15	0	0	0	0	505	711	
0	0	0	0	0	506	711	
1	0	0	0	0	507	711	
2	0	0	0	0	509	711	
3	0	0	0	0	510	711	
4	0	0	0	0	510	711	
5	0	0	0	0	509	711	
6	0	0	0	0	508	711	
7	0	0	0	0	507	711	
8	0	0	0	0	507	711	
9	0	0	0	0	506	711	
10	0	0	0	0	505	710	
11	0	0	0	0	505	710	
12	0	0	0	0	507	711	
13	0	0	0	0	509	711	
14	0	0	0	0	511	711	
15	0	0	0	0	512	711	
0	0	0	0	0	513	710	
1	0	0	0	0	515	710	
2	0	0	0	0	516	711	
3	0	0	0	0	517	711	
4	0	0	0	0	517	711	
5	0	0	0	0	516	711	
6	0	0	0	0	516	711	
7	0	0	0	0	516	711	
8	0	0	0	0	515	711	
9	0	0	0	0	513	710	
10	0	0	0	0	512	710	
11	0	0	0	0	512	710	
12	0	0	0	0	512	711	
13	0	0	0	0	511	710	
14	0	0	0	0	511	710	
15	0	0	0	0	511	710	
0	0	0	0	0	510	710	
1	0	0	0	0	510	711	
2	0	0	0	0	510	710	
3	0	0	0	0	510	710	
4	0	0	0	0	510	710	
5	0	0	0	0	509	710	
6	0	0	0	0	509	710	
7	0	0	0	0	509	710	
8	0	0	0	0	508	710	
9	0	0	0	0	508	711	
10	0	0	0	0	507	710	
11	0	0	0	0	506	710	
12	0	0	0	0	507	710	
13	0	0	0	0	507	710	
14	0	0	0	0	508	711	
15	0	0	0	0	509	710	
0	0	0	0	0	509	710	
1	0	0	0	0	508	710	
2	0	0	0	0	509	710	
3	0	0	0	0	511	710	
4	0	0	0	0	513	710	
5	0	0	0	0	515	710	
6	0	0	0	0	517	710	
7	0	0	0	0	518	710	
8	0	0	0	0	519	711	
9	0	0	0	0	519	710	
10	0	0	0	0	519	710	
11	0	0	0	0	519	710	
12	0	0	0	0	518	710	
13	0	0	0	0	517	710	
14	0	0	0	0	519	710	
15	0	0	0	0	521	710	
0	0	0	0	0	523	710	
1	0	0	0	0	524	710	
2	0	0	0	0	525	710	
3	0	0	0	0	528	710	
4	0	0	0	0	531	710	
5	0	0	0	0	532	710	
6	0	0	0	0	532	710	
7	0	0	0	0	531	710	
8	0	0	0	0	530	710	
9	0	0	0	0	527	710	
10	0	0	0	0	525	711	
11	0	0	0	0	525	710	
12	0	0	0	0	525	710	
13	0	0	0	0	525	710	
14	0	0	0	0	525	710	
15	0	0	0	0	524	710	
0	0	0	0	0	524	710	
1	0	0	0	0	524	710	
2	0	0	0	0	523	710	
3	0	0	0	0	524	710	
