# OpenSignals Text File Format. Version 1
# {"98:D3:71:FE:38:1C": {"position": 0, "device": "bitalino_rev", "device name": "98:D3:71:FE:38:1C", "device connection": "BTH98:D3:71:FE:38:1C", "sampling rate": 1000, "resolution": [4, 1, 1, 1, 1, 10, 10], "firmware version": 1282, "comments": "", "keywords": "", "mode": 0, "sync interval": 2, "date": "2026-6-26", "time": "14:57:33.653", "channels": [1, 2], "sensor": ["ECGBIT", "EDABITREV"], "label": ["A1", "A2"], "column": ["nSeq", "I1", "I2", "O1", "O2", "A1", "A2"], "special": [{}, {}], "digital IO": [0, 0, 1, 1]}}
# EndOfHeader
0	0	0	0	0	490	719	
1	0	0	0	0	492	719	
2	0	0	0	0	494	718	
3	0	0	0	0	495	718	
4	0	0	0	0	496	719	
5	0	0	0	0	496	719	
6	0	0	0	0	494	719	
7	0	0	0	0	491	719	
8	0	0	0	0	488	718	
9	0	0	0	0	487	719	
10	0	0	0	0	484	718	
11	0	0	0	0	483	719	
12	0	0	0	0	481	719	
13	0	0	0	0	480	719	
14	0	0	0	0	482	719	
15	0	0	0	0	486	719	
0	0	0	0	0	490	719	
1	0	0	0	0	495	719	
2	0	0	0	0	497	719	
3	0	0	0	0	499	719	
4	0	0	0	0	500	719	
5	0	0	0	0	499	719	
6	0	0	0	0	496	719	
7	0	0	0	0	492	719	
8	0	0	0	0	489	719	
9	0	0	0	0	484	719	
10	0	0	0	0	480	719	
11	0	0	0	0	480	719	
12	0	0	0	0	482	719	
13	0	0	0	0	484	719	
14	0	0	0	0	486	719	
15	0	0	0	0	489	719	
0	0	0	0	0	492	719	
1	0	0	0	0	497	719	
2	0	0	0	0	501	719	
3	0	0	0	0	503	719	
4	0	0	0	0	504	719	
5	0	0	0	0	506	719	
6	0	0	0	0	504	719	
7	0	0	0	0	502	719	
8	0	0	0	0	496	719	
9	0	0	0	0	485	719	
10	0	0	0	0	476	719	
11	0	0	0	0	470	719	
12	0	0	0	0	468	719	
13	0	0	0	0	468	719	
14	0	0	0	0	470	719	
15	0	0	0	0	470	719	
0	0	0	0	0	473	719	
1	0	0	0	0	478	719	
2	0	0	0	0	481	719	
3	0	0	0	0	481	719	
4	0	0	0	0	481	719	
5	0	0	0	0	480	719	
6	0	0	0	0	479	719	
7	0	0	0	0	477	719	
8	0	0	0	0	475	719	
9	0	0	0	0	475	719	
10	0	0	0	0	474	719	
11	0	0	0	0	475	720	
12	0	0	0	0	476	719	
13	0	0	0	0	478	719	
14	0	0	0	0	479	719	
15	0	0	0	0	480	719	
0	0	0	0	0	483	720	
1	0	0	0	0	487	720	
2	0	0	0	0	490	720	
3	0	0	0	0	492	719	
4	0	0	0	0	495	720	
5	0	0	0	0	494	720	
6	0	0	0	0	493	720	
7	0	0	0	0	489	720	
8	0	0	0	0	487	720	
9	0	0	0	0	483	719	
10	0	0	0	0	479	720	
11	0	0	0	0	476	720	
12	0	0	0	0	473	720	
13	0	0	0	0	471	720	
14	0	0	0	0	469	720	
15	0	0	0	0	470	720	
0	0	0	0	0	470	720	
1	0	0	0	0	472	720	
2	0	0	0	0	474	720	
3	0	0	0	0	475	720	
4	0	0	0	0	477	720	
5	0	0	0	0	477	720	
6	0	0	0	0	476	720	
7	0	0	0	0	475	720	
8	0	0	0	0	474	720	
9	0	0	0	0	474	720	
10	0	0	0	0	475	720	
11	0	0	0	0	473	720	
12	0	0	0	0	473	720	
13	0	0	0	0	476	720	
14	0	0	0	0	478	720	
15	0	0	0	0	479	720	
0	0	0	0	0	481	720	
1	0	0	0	0	483	721	
2	0	0	0	0	484	720	
3	0	0	0	0	486	721	
4	0	0	0	0	486	720	
5	0	0	0	0	487	721	
6	0	0	0	0	487	721	
7	0	0	0	0	486	720	
8	0	0	0	0	486	721	
9	0	0	0	0	484	721	
10	0	0	0	0	483	720	
11	0	0	0	0	481	721	
12	0	0	0	0	479	721	
13	0	0	0	0	478	721	
14	0	0	0	0	477	721	
15	0	0	0	0	476	721	
0	0	0	0	0	478	721	
1	0	0	0	0	479	721	
2	0	0	0	0	481	721	
3	0	0	0	0	483	721	
4	0	0	0	0	486	721	
5	0	0	0	0	487	721	
6	0	0	0	0	487	721	
7	0	0	0	0	487	721	
8	0	0	0	0	491	721	
9	0	0	0	0	495	721	
10	0	0	0	0	497	721	
11	0	0	0	0	500	721	
12	0	0	0	0	502	721	
13	0	0	0	0	504	721	
14	0	0	0	0	506	721	
15	0	0	0	0	507	721	
0	0	0	0	0	509	721	
1	0	0	0	0	510	721	
2	0	0	0	0	512	721	
3	0	0	0	0	515	721	
4	0	0	0	0	521	721	
5	0	0	0	0	528	721	
6	0	0	0	0	534	721	
7	0	0	0	0	536	721	
8	0	0	0	0	537	721	
9	0	0	0	0	538	721	
10	0	0	0	0	535	721	
11	0	0	0	0	530	722	
12	0	0	0	0	527	721	
13	0	0	0	0	524	721	
14	0	0	0	0	522	721	
15	0	0	0	0	521	722	
0	0	0	0	0	524	722	
1	0	0	0	0	525	721	
2	0	0	0	0	525	721	
3	0	0	0	0	527	722	
4	0	0	0	0	528	721	
5	0	0	0	0	531	722	
6	0	0	0	0	534	722	
7	0	0	0	0	535	722	
8	0	0	0	0	538	722	
9	0	0	0	0	543	722	
10	0	0	0	0	547	722	
11	0	0	0	0	550	722	
12	0	0	0	0	551	722	
13	0	0	0	0	551	722	
14	0	0	0	0	551	722	
15	0	0	0	0	551	722	
0	0	0	0	0	551	722	
1	0	0	0	0	552	722	
2	0	0	0	0	553	722	
3	0	0	0	0	553	722	
4	0	0	0	0	552	722	
5	0	0	0	0	554	722	
6	0	0	0	0	555	722	
7	0	0	0	0	554	722	
8	0	0	0	0	551	723	
9	0	0	0	0	548	722	
10	0	0	0	0	543	722	
11	0	0	0	0	540	722	
12	0	0	0	0	535	722	
13	0	0	0	0	532	722	
14	0	0	0	0	531	722	
15	0	0	0	0	531	722	
0	0	0	0	0	534	723	
1	0	0	0	0	536	722	
2	0	0	0	0	537	722	
3	0	0	0	0	538	722	
4	0	0	0	0	539	723	
5	0	0	0	0	540	723	
6	0	0	0	0	540	722	
7	0	0	0	0	540	722	
8	0	0	0	0	538	722	
9	0	0	0	0	534	723	
10	0	0	0	0	527	723	
11	0	0	0	0	521	723	
12	0	0	0	0	515	722	
13	0	0	0	0	509	723	
14	0	0	0	0	502	723	
15	0	0	0	0	494	723	
0	0	0	0	0	487	723	
1	0	0	0	0	483	722	
2	0	0	0	0	481	723	
3	0	0	0	0	480	723	
4	0	0	0	0	479	723	
5	0	0	0	0	477	723	
6	0	0	0	0	479	723	
7	0	0	0	0	482	723	
8	0	0	0	0	484	723	
9	0	0	0	0	483	723	
10	0	0	0	0	480	723	
11	0	0	0	0	477	723	
12	0	0	0	0	476	723	
13	0	0	0	0	474	723	
14	0	0	0	0	474	723	
15	0	0	0	0	474	723	
0	0	0	0	0	474	723	
1	0	0	0	0	474	723	
2	0	0	0	0	474	723	
3	0	0	0	0	476	723	
4	0	0	0	0	478	723	
5	0	0	0	0	479	723	
6	0	0	0	0	481	723	
7	0	0	0	0	482	723	
8	0	0	0	0	482	723	
9	0	0	0	0	481	723	
10	0	0	0	0	480	723	
11	0	0	0	0	477	723	
12	0	0	0	0	472	723	
13	0	0	0	0	468	723	
14	0	0	0	0	463	723	
15	0	0	0	0	460	723	
0	0	0	0	0	456	723	
1	0	0	0	0	454	723	
2	0	0	0	0	451	723	
3	0	0	0	0	448	723	
4	0	0	0	0	448	723	
5	0	0	0	0	446	723	
6	0	0	0	0	444	724	
7	0	0	0	0	447	723	
8	0	0	0	0	450	723	
9	0	0	0	0	452	724	
10	0	0	0	0	455	724	
11	0	0	0	0	455	723	
12	0	0	0	0	454	724	
13	0	0	0	0	455	724	
14	0	0	0	0	455	723	
15	0	0	0	0	454	724	
0	0	0	0	0	453	724	
1	0	0	0	0	450	724	
2	0	0	0	0	448	724	
3	0	0	0	0	450	724	
4	0	0	0	0	455	724	
5	0	0	0	0	459	724	
6	0	0	0	0	460	724	
7	0	0	0	0	461	724	
8	0	0	0	0	462	724	
9	0	0	0	0	463	724	
10	0	0	0	0	461	724	
11	0	0	0	0	457	724	
12	0	0	0	0	452	724	
13	0	0	0	0	447	724	
14	0	0	0	0	442	724	
15	0	0	0	0	440	724	
0	0	0	0	0	440	724	
1	0	0	0	0	440	724	
2	0	0	0	0	441	724	
3	0	0	0	0	446	724	
4	0	0	0	0	454	725	
5	0	0	0	0	461	725	
6	0	0	0	0	468	725	
7	0	0	0	0	478	724	
8	0	0	0	0	490	725	
9	0	0	0	0	505	724	
10	0	0	0	0	523	725	
11	0	0	0	0	540	725	
12	0	0	0	0	561	724	
13	0	0	0	0	585	725	
14	0	0	0	0	615	725	
15	0	0	0	0	646	725	
0	0	0	0	0	678	725	
1	0	0	0	0	710	725	
2	0	0	0	0	738	725	
3	0	0	0	0	762	725	
4	0	0	0	0	785	725	
5	0	0	0	0	807	725	
6	0	0	0	0	831	725	
7	0	0	0	0	858	726	
8	0	0	0	0	882	725	
9	0	0	0	0	901	725	
10	0	0	0	0	913	725	
11	0	0	0	0	919	725	
12	0	0	0	0	921	726	
13	0	0	0	0	916	725	
14	0	0	0	0	902	726	
15	0	0	0	0	878	725	
0	0	0	0	0	844	726	
1	0	0	0	0	802	726	
2	0	0	0	0	755	725	
3	0	0	0	0	707	726	
4	0	0	0	0	658	726	
5	0	0	0	0	614	726	
6	0	0	0	0	576	726	
7	0	0	0	0	540	726	
8	0	0	0	0	509	726	
9	0	0	0	0	481	726	
10	0	0	0	0	459	726	
11	0	0	0	0	442	726	
12	0	0	0	0	427	726	
13	0	0	0	0	414	726	
14	0	0	0	0	401	726	
15	0	0	0	0	388	726	
0	0	0	0	0	374	726	
1	0	0	0	0	359	726	
2	0	0	0	0	348	726	
3	0	0	0	0	339	726	
4	0	0	0	0	335	726	
5	0	0	0	0	335	726	
6	0	0	0	0	337	726	
7	0	0	0	0	344	726	
8	0	0	0	0	350	726	
9	0	0	0	0	356	726	
10	0	0	0	0	367	726	
11	0	0	0	0	378	726	
12	0	0	0	0	389	727	
13	0	0	0	0	399	726	
14	0	0	0	0	406	726	
15	0	0	0	0	410	727	
0	0	0	0	0	414	726	
1	0	0	0	0	415	727	
2	0	0	0	0	414	726	
3	0	0	0	0	414	726	
4	0	0	0	0	413	727	
5	0	0	0	0	411	727	
6	0	0	0	0	413	727	
7	0	0	0	0	416	727	
8	0	0	0	0	419	727	
9	0	0	0	0	421	727	
10	0	0	0	0	423	727	
11	0	0	0	0	428	727	
12	0	0	0	0	433	727	
13	0	0	0	0	439	727	
14	0	0	0	0	444	727	
15	0	0	0	0	448	727	
0	0	0	0	0	450	727	
1	0	0	0	0	454	727	
2	0	0	0	0	456	727	
3	0	0	0	0	458	727	
4	0	0	0	0	456	727	
5	0	0	0	0	453	727	
6	0	0	0	0	450	727	
7	0	0	0	0	447	727	
8	0	0	0	0	447	727	
9	0	0	0	0	446	728	
10	0	0	0	0	448	727	
11	0	0	0	0	453	727	
12	0	0	0	0	459	727	
13	0	0	0	0	465	728	
14	0	0	0	0	472	727	
15	0	0	0	0	476	728	
0	0	0	0	0	477	727	
1	0	0	0	0	478	727	
2	0	0	0	0	480	728	
3	0	0	0	0	481	728	
4	0	0	0	0	482	728	
5	0	0	0	0	482	728	
6	0	0	0	0	479	728	
7	0	0	0	0	478	728	
8	0	0	0	0	476	728	
9	0	0	0	0	476	728	
10	0	0	0	0	475	728	
11	0	0	0	0	474	728	
12	0	0	0	0	475	728	
13	0	0	0	0	476	728	
14	0	0	0	0	478	728	
15	0	0	0	0	483	728	
0	0	0	0	0	487	728	
1	0	0	0	0	489	728	
2	0	0	0	0	489	728	
3	0	0	0	0	491	728	
4	0	0	0	0	492	728	
5	0	0	0	0	491	728	
6	0	0	0	0	487	728	
7	0	0	0	0	483	728	
8	0	0	0	0	482	728	
9	0	0	0	0	485	728	
10	0	0	0	0	489	728	
11	0	0	0	0	494	728	
12	0	0	0	0	497	728	
13	0	0	0	0	501	728	
14	0	0	0	0	506	728	
15	0	0	0	0	511	728	
0	0	0	0	0	516	728	
1	0	0	0	0	520	728	
2	0	0	0	0	524	728	
3	0	0	0	0	527	728	
4	0	0	0	0	527	728	
5	0	0	0	0	524	728	
6	0	0	0	0	520	728	
7	0	0	0	0	519	728	
8	0	0	0	0	518	728	
9	0	0	0	0	518	728	
10	0	0	0	0	517	728	
11	0	0	0	0	519	728	
12	0	0	0	0	522	728	
13	0	0	0	0	524	728	
14	0	0	0	0	528	728	
15	0	0	0	0	533	728	
0	0	0	0	0	537	728	
1	0	0	0	0	541	728	
2	0	0	0	0	543	728	
3	0	0	0	0	542	728	
4	0	0	0	0	540	728	
5	0	0	0	0	536	729	
6	0	0	0	0	535	729	
7	0	0	0	0	534	728	
8	0	0	0	0	533	728	
9	0	0	0	0	532	729	
10	0	0	0	0	532	728	
11	0	0	0	0	535	729	
12	0	0	0	0	535	729	
13	0	0	0	0	534	728	
14	0	0	0	0	534	728	
15	0	0	0	0	533	729	
0	0	0	0	0	535	729	
1	0	0	0	0	537	729	
2	0	0	0	0	541	729	
3	0	0	0	0	542	729	
4	0	0	0	0	543	729	
5	0	0	0	0	545	729	
6	0	0	0	0	544	729	
7	0	0	0	0	542	729	
8	0	0	0	0	542	729	
9	0	0	0	0	542	729	
10	0	0	0	0	544	729	
11	0	0	0	0	547	729	
12	0	0	0	0	549	729	
13	0	0	0	0	550	729	
14	0	0	0	0	549	729	
15	0	0	0	0	550	729	
0	0	0	0	0	548	729	
1	0	0	0	0	547	729	
2	0	0	0	0	545	729	
3	0	0	0	0	541	729	
4	0	0	0	0	536	729	
5	0	0	0	0	533	729	
6	0	0	0	0	530	729	
7	0	0	0	0	530	729	
8	0	0	0	0	528	729	
9	0	0	0	0	529	729	
10	0	0	0	0	531	729	
11	0	0	0	0	532	729	
12	0	0	0	0	536	729	
13	0	0	0	0	539	729	
14	0	0	0	0	541	729	
15	0	0	0	0	542	729	
0	0	0	0	0	545	729	
1	0	0	0	0	550	729	
2	0	0	0	0	553	729	
3	0	0	0	0	555	729	
4	0	0	0	0	556	729	
5	0	0	0	0	556	729	
6	0	0	0	0	556	729	
7	0	0	0	0	555	729	
8	0	0	0	0	553	729	
9	0	0	0	0	551	729	
10	0	0	0	0	549	729	
11	0	0	0	0	545	730	
12	0	0	0	0	544	729	
13	0	0	0	0	543	729	
14	0	0	0	0	542	729	
15	0	0	0	0	540	729	
0	0	0	0	0	540	730	
1	0	0	0	0	542	729	
2	0	0	0	0	543	729	
3	0	0	0	0	544	729	
4	0	0	0	0	542	730	
5	0	0	0	0	539	730	
6	0	0	0	0	539	729	
7	0	0	0	0	537	729	
8	0	0	0	0	537	730	
9	0	0	0	0	536	729	
10	0	0	0	0	536	730	
11	0	0	0	0	535	730	
12	0	0	0	0	535	729	
13	0	0	0	0	535	730	
14	0	0	0	0	534	729	
15	0	0	0	0	532	730	
0	0	0	0	0	532	730	
1	0	0	0	0	534	730	
2	0	0	0	0	537	730	
3	0	0	0	0	540	729	
4	0	0	0	0	544	730	
5	0	0	0	0	545	730	
6	0	0	0	0	548	730	
7	0	0	0	0	549	730	
8	0	0	0	0	547	730	
9	0	0	0	0	546	730	
10	0	0	0	0	543	730	
11	0	0	0	0	538	730	
12	0	0	0	0	537	730	
13	0	0	0	0	537	730	
14	0	0	0	0	536	730	
15	0	0	0	0	536	730	
0	0	0	0	0	535	730	
1	0	0	0	0	534	730	
2	0	0	0	0	533	730	
3	0	0	0	0	533	730	
4	0	0	0	0	535	730	
5	0	0	0	0	536	730	
6	0	0	0	0	537	730	
7	0	0	0	0	536	730	
8	0	0	0	0	537	730	
9	0	0	0	0	536	730	
10	0	0	0	0	536	730	
11	0	0	0	0	532	730	
12	0	0	0	0	529	730	
13	0	0	0	0	525	730	
14	0	0	0	0	523	730	
15	0	0	0	0	524	730	
0	0	0	0	0	526	730	
1	0	0	0	0	527	730	
2	0	0	0	0	528	731	
3	0	0	0	0	530	730	
4	0	0	0	0	533	731	
5	0	0	0	0	536	730	
6	0	0	0	0	540	730	
7	0	0	0	0	543	730	
8	0	0	0	0	544	730	
9	0	0	0	0	545	730	
10	0	0	0	0	545	731	
11	0	0	0	0	544	730	
12	0	0	0	0	542	731	
13	0	0	0	0	537	731	
14	0	0	0	0	532	730	
15	0	0	0	0	527	731	
0	0	0	0	0	523	730	
1	0	0	0	0	519	731	
2	0	0	0	0	516	731	
3	0	0	0	0	518	731	
4	0	0	0	0	521	731	
5	0	0	0	0	522	730	
6	0	0	0	0	523	731	
7	0	0	0	0	524	731	
8	0	0	0	0	524	731	
9	0	0	0	0	523	730	
10	0	0	0	0	520	730	
11	0	0	0	0	514	731	
12	0	0	0	0	510	731	
13	0	0	0	0	509	731	
14	0	0	0	0	506	731	
15	0	0	0	0	503	731	
0	0	0	0	0	499	731	
1	0	0	0	0	495	731	
2	0	0	0	0	491	731	
3	0	0	0	0	491	731	
4	0	0	0	0	492	730	
5	0	0	0	0	497	731	
6	0	0	0	0	500	731	
7	0	0	0	0	505	731	
8	0	0	0	0	507	731	
9	0	0	0	0	505	731	
10	0	0	0	0	502	731	
11	0	0	0	0	496	731	
12	0	0	0	0	492	731	
13	0	0	0	0	485	731	
14	0	0	0	0	479	731	
15	0	0	0	0	472	731	
0	0	0	0	0	467	731	
1	0	0	0	0	467	731	
2	0	0	0	0	466	731	
3	0	0	0	0	461	731	
4	0	0	0	0	457	731	
5	0	0	0	0	452	731	
6	0	0	0	0	450	731	
7	0	0	0	0	451	731	
8	0	0	0	0	453	731	
9	0	0	0	0	455	731	
10	0	0	0	0	458	731	
11	0	0	0	0	462	731	
12	0	0	0	0	466	731	
13	0	0	0	0	468	731	
14	0	0	0	0	471	731	
15	0	0	0	0	473	731	
0	0	0	0	0	475	731	
1	0	0	0	0	479	731	
2	0	0	0	0	482	731	
3	0	0	0	0	484	731	
4	0	0	0	0	484	731	
5	0	0	0	0	486	731	
6	0	0	0	0	486	731	
7	0	0	0	0	485	731	
8	0	0	0	0	481	732	
9	0	0	0	0	477	731	
10	0	0	0	0	471	731	
11	0	0	0	0	465	731	
12	0	0	0	0	462	731	
13	0	0	0	0	457	731	
14	0	0	0	0	452	731	
15	0	0	0	0	449	731	
0	0	0	0	0	446	731	
1	0	0	0	0	444	731	
2	0	0	0	0	442	731	
3	0	0	0	0	441	731	
4	0	0	0	0	441	732	
5	0	0	0	0	441	731	
6	0	0	0	0	446	731	
7	0	0	0	0	449	731	
8	0	0	0	0	451	731	
9	0	0	0	0	452	732	
10	0	0	0	0	452	731	
11	0	0	0	0	453	731	
12	0	0	0	0	453	732	
13	0	0	0	0	454	731	
14	0	0	0	0	451	731	
15	0	0	0	0	447	732	
0	0	0	0	0	444	732	
1	0	0	0	0	441	732	
2	0	0	0	0	440	731	
3	0	0	0	0	439	732	
4	0	0	0	0	436	731	
5	0	0	0	0	436	732	
6	0	0	0	0	440	732	
7	0	0	0	0	447	731	
8	0	0	0	0	454	732	
9	0	0	0	0	460	731	
10	0	0	0	0	461	731	
11	0	0	0	0	462	732	
12	0	0	0	0	464	731	
13	0	0	0	0	463	732	
14	0	0	0	0	461	732	
15	0	0	0	0	459	731	
0	0	0	0	0	456	732	
1	0	0	0	0	455	731	
2	0	0	0	0	453	732	
3	0	0	0	0	453	731	
4	0	0	0	0	454	731	
5	0	0	0	0	456	732	
6	0	0	0	0	459	732	
7	0	0	0	0	464	732	
8	0	0	0	0	470	732	
9	0	0	0	0	475	731	
10	0	0	0	0	480	732	
11	0	0	0	0	483	731	
12	0	0	0	0	486	732	
13	0	0	0	0	488	731	
14	0	0	0	0	487	731	
15	0	0	0	0	485	732	
0	0	0	0	0	483	731	
1	0	0	0	0	481	731	
2	0	0	0	0	479	732	
3	0	0	0	0	478	731	
4	0	0	0	0	481	732	
5	0	0	0	0	481	731	
6	0	0	0	0	479	732	
7	0	0	0	0	478	732	
8	0	0	0	0	479	731	
9	0	0	0	0	480	732	
10	0	0	0	0	483	731	
11	0	0	0	0	487	732	
12	0	0	0	0	489	731	
13	0	0	0	0	490	731	
14	0	0	0	0	491	732	
15	0	0	0	0	494	731	
0	0	0	0	0	495	732	
1	0	0	0	0	496	731	
2	0	0	0	0	498	731	
3	0	0	0	0	499	732	
4	0	0	0	0	497	732	
5	0	0	0	0	497	732	
6	0	0	0	0	496	732	
7	0	0	0	0	493	731	
8	0	0	0	0	491	732	
9	0	0	0	0	491	731	
10	0	0	0	0	494	732	
11	0	0	0	0	495	731	
12	0	0	0	0	495	731	
13	0	0	0	0	495	732	
14	0	0	0	0	495	731	
15	0	0	0	0	494	731	
0	0	0	0	0	494	731	
1	0	0	0	0	495	731	
2	0	0	0	0	495	732	
3	0	0	0	0	497	732	
4	0	0	0	0	498	732	
5	0	0	0	0	499	732	
6	0	0	0	0	498	731	
7	0	0	0	0	496	732	
8	0	0	0	0	493	731	
9	0	0	0	0	493	732	
10	0	0	0	0	492	732	
11	0	0	0	0	492	731	
12	0	0	0	0	492	732	
13	0	0	0	0	491	732	
14	0	0	0	0	489	731	
15	0	0	0	0	489	731	
0	0	0	0	0	490	731	
1	0	0	0	0	493	731	
2	0	0	0	0	495	732	
3	0	0	0	0	495	732	
4	0	0	0	0	493	732	
5	0	0	0	0	494	731	
6	0	0	0	0	496	731	
7	0	0	0	0	494	731	
8	0	0	0	0	490	731	
9	0	0	0	0	487	731	
10	0	0	0	0	486	731	
11	0	0	0	0	488	732	
12	0	0	0	0	492	731	
13	0	0	0	0	492	731	
14	0	0	0	0	491	732	
15	0	0	0	0	489	731	
0	0	0	0	0	488	731	
1	0	0	0	0	486	732	
2	0	0	0	0	484	731	
3	0	0	0	0	483	731	
4	0	0	0	0	483	731	
5	0	0	0	0	483	731	
6	0	0	0	0	485	731	
7	0	0	0	0	490	731	
8	0	0	0	0	493	731	
9	0	0	0	0	493	731	
10	0	0	0	0	494	732	
11	0	0	0	0	496	731	
12	0	0	0	0	498	732	
13	0	0	0	0	499	731	
14	0	0	0	0	500	731	
15	0	0	0	0	500	731	
0	0	0	0	0	499	731	
1	0	0	0	0	501	731	
2	0	0	0	0	501	731	
3	0	0	0	0	499	731	
4	0	0	0	0	498	731	
5	0	0	0	0	496	731	
6	0	0	0	0	495	731	
7	0	0	0	0	495	731	
8	0	0	0	0	494	731	
9	0	0	0	0	493	732	
10	0	0	0	0	494	731	
11	0	0	0	0	493	731	
12	0	0	0	0	495	731	
13	0	0	0	0	498	731	
14	0	0	0	0	502	731	
15	0	0	0	0	503	731	
0	0	0	0	0	502	731	
1	0	0	0	0	501	731	
2	0	0	0	0	499	731	
3	0	0	0	0	496	731	
4	0	0	0	0	492	731	
5	0	0	0	0	487	732	
6	0	0	0	0	486	731	
7	0	0	0	0	486	731	
8	0	0	0	0	486	731	
9	0	0	0	0	487	731	
10	0	0	0	0	488	731	
11	0	0	0	0	489	731	
12	0	0	0	0	494	731	
13	0	0	0	0	500	731	
14	0	0	0	0	504	731	
15	0	0	0	0	506	731	
0	0	0	0	0	507	731	
1	0	0	0	0	506	731	
2	0	0	0	0	506	731	
3	0	0	0	0	503	731	
4	0	0	0	0	502	731	
5	0	0	0	0	499	731	
6	0	0	0	0	499	731	
7	0	0	0	0	502	731	
8	0	0	0	0	504	731	
9	0	0	0	0	510	731	
10	0	0	0	0	515	731	
11	0	0	0	0	521	731	
12	0	0	0	0	527	731	
13	0	0	0	0	531	731	
14	0	0	0	0	535	731	
15	0	0	0	0	535	731	
0	0	0	0	0	532	731	
1	0	0	0	0	531	731	
2	0	0	0	0	531	730	
3	0	0	0	0	529	731	
4	0	0	0	0	526	731	
5	0	0	0	0	522	731	
6	0	0	0	0	521	731	
7	0	0	0	0	520	731	
8	0	0	0	0	521	731	
9	0	0	0	0	524	731	
10	0	0	0	0	526	731	
11	0	0	0	0	530	731	
12	0	0	0	0	532	731	
13	0	0	0	0	536	731	
14	0	0	0	0	540	730	
15	0	0	0	0	545	730	
0	0	0	0	0	550	731	
1	0	0	0	0	553	730	
2	0	0	0	0	555	730	
3	0	0	0	0	556	731	
4	0	0	0	0	552	730	
5	0	0	0	0	551	731	
6	0	0	0	0	550	730	
7	0	0	0	0	548	730	
8	0	0	0	0	545	730	
9	0	0	0	0	542	730	
10	0	0	0	0	541	731	
11	0	0	0	0	540	730	
12	0	0	0	0	539	730	
13	0	0	0	0	539	730	
14	0	0	0	0	539	730	
15	0	0	0	0	540	731	
0	0	0	0	0	540	730	
1	0	0	0	0	539	730	
2	0	0	0	0	538	730	
3	0	0	0	0	537	730	
4	0	0	0	0	538	731	
5	0	0	0	0	539	730	
6	0	0	0	0	539	730	
7	0	0	0	0	537	730	
8	0	0	0	0	532	729	
9	0	0	0	0	529	730	
10	0	0	0	0	528	729	
11	0	0	0	0	526	730	
12	0	0	0	0	521	730	
13	0	0	0	0	517	730	
14	0	0	0	0	514	730	
15	0	0	0	0	509	729	
0	0	0	0	0	505	730	
1	0	0	0	0	502	730	
2	0	0	0	0	499	729	
3	0	0	0	0	495	730	
4	0	0	0	0	490	729	
5	0	0	0	0	487	730	
6	0	0	0	0	484	730	
7	0	0	0	0	483	729	
8	0	0	0	0	480	729	
9	0	0	0	0	476	729	
10	0	0	0	0	476	730	
11	0	0	0	0	479	729	
12	0	0	0	0	480	729	
13	0	0	0	0	478	729	
14	0	0	0	0	477	729	
15	0	0	0	0	478	729	
0	0	0	0	0	480	729	
1	0	0	0	0	477	729	
2	0	0	0	0	476	729	
3	0	0	0	0	475	729	
4	0	0	0	0	474	729	
5	0	0	0	0	472	729	
6	0	0	0	0	472	729	
7	0	0	0	0	472	729	
8	0	0	0	0	470	729	
9	0	0	0	0	467	729	
10	0	0	0	0	466	729	
11	0	0	0	0	465	729	
12	0	0	0	0	465	729	
13	0	0	0	0	465	729	
14	0	0	0	0	468	729	
15	0	0	0	0	472	729	
0	0	0	0	0	474	729	
1	0	0	0	0	479	729	
2	0	0	0	0	483	728	
3	0	0	0	0	487	729	
4	0	0	0	0	485	729	
5	0	0	0	0	483	728	
6	0	0	0	0	481	729	
7	0	0	0	0	478	728	
8	0	0	0	0	478	729	
9	0	0	0	0	475	728	
10	0	0	0	0	473	728	
11	0	0	0	0	473	729	
12	0	0	0	0	474	729	
13	0	0	0	0	475	728	
14	0	0	0	0	479	728	
15	0	0	0	0	483	728	
0	0	0	0	0	488	728	
1	0	0	0	0	493	728	
2	0	0	0	0	497	728	
3	0	0	0	0	500	728	
4	0	0	0	0	500	728	
5	0	0	0	0	499	728	
6	0	0	0	0	500	728	
7	0	0	0	0	500	728	
8	0	0	0	0	497	728	
9	0	0	0	0	495	728	
10	0	0	0	0	491	728	
11	0	0	0	0	488	728	
12	0	0	0	0	489	728	
13	0	0	0	0	490	728	
14	0	0	0	0	491	728	
15	0	0	0	0	491	728	
0	0	0	0	0	491	728	
1	0	0	0	0	492	728	
2	0	0	0	0	492	728	
3	0	0	0	0	487	728	
4	0	0	0	0	481	728	
5	0	0	0	0	475	728	
6	0	0	0	0	467	728	
7	0	0	0	0	462	728	
8	0	0	0	0	462	728	
9	0	0	0	0	460	728	
10	0	0	0	0	459	728	
11	0	0	0	0	458	728	
12	0	0	0	0	459	728	
13	0	0	0	0	462	727	
14	0	0	0	0	465	728	
15	0	0	0	0	472	728	
0	0	0	0	0	480	728	
1	0	0	0	0	487	728	
2	0	0	0	0	497	728	
3	0	0	0	0	508	728	
4	0	0	0	0	519	728	
5	0	0	0	0	536	728	
6	0	0	0	0	556	727	
7	0	0	0	0	581	727	
8	0	0	0	0	614	728	
9	0	0	0	0	646	728	
10	0	0	0	0	679	728	
11	0	0	0	0	709	728	
12	0	0	0	0	736	727	
13	0	0	0	0	758	728	
14	0	0	0	0	781	728	
15	0	0	0	0	807	727	
0	0	0	0	0	833	727	
1	0	0	0	0	855	727	
2	0	0	0	0	873	727	
3	0	0	0	0	882	727	
4	0	0	0	0	891	727	
5	0	0	0	0	894	727	
6	0	0	0	0	887	727	
7	0	0	0	0	870	727	
8	0	0	0	0	839	727	
9	0	0	0	0	801	727	
10	0	0	0	0	758	727	
11	0	0	0	0	713	727	
12	0	0	0	0	671	727	
13	0	0	0	0	629	727	
14	0	0	0	0	590	727	
15	0	0	0	0	557	727	
0	0	0	0	0	527	727	
1	0	0	0	0	503	727	
2	0	0	0	0	481	727	
3	0	0	0	0	464	727	
4	0	0	0	0	451	727	
5	0	0	0	0	437	727	
6	0	0	0	0	423	727	
7	0	0	0	0	409	726	
8	0	0	0	0	396	727	
9	0	0	0	0	381	727	
10	0	0	0	0	366	727	
11	0	0	0	0	351	727	
12	0	0	0	0	338	727	
13	0	0	0	0	325	726	
14	0	0	0	0	318	727	
15	0	0	0	0	314	726	
0	0	0	0	0	314	727	
1	0	0	0	0	318	727	
2	0	0	0	0	322	727	
3	0	0	0	0	330	727	
4	0	0	0	0	340	726	
5	0	0	0	0	353	727	
6	0	0	0	0	366	726	
7	0	0	0	0	376	726	
8	0	0	0	0	384	726	
9	0	0	0	0	393	726	
10	0	0	0	0	401	727	
11	0	0	0	0	407	726	
12	0	0	0	0	412	726	
13	0	0	0	0	418	726	
14	0	0	0	0	423	726	
15	0	0	0	0	430	727	
0	0	0	0	0	438	726	
1	0	0	0	0	448	726	
2	0	0	0	0	456	726	
3	0	0	0	0	463	726	
4	0	0	0	0	469	726	
5	0	0	0	0	474	726	
6	0	0	0	0	478	726	
7	0	0	0	0	480	726	
8	0	0	0	0	481	726	
9	0	0	0	0	481	726	
10	0	0	0	0	482	726	
11	0	0	0	0	483	726	
12	0	0	0	0	482	726	
13	0	0	0	0	482	726	
14	0	0	0	0	483	726	
15	0	0	0	0	485	726	
0	0	0	0	0	487	726	
1	0	0	0	0	492	726	
2	0	0	0	0	495	726	
3	0	0	0	0	497	726	
4	0	0	0	0	498	726	
5	0	0	0	0	502	726	
6	0	0	0	0	506	726	
7	0	0	0	0	509	726	
8	0	0	0	0	512	726	
9	0	0	0	0	512	726	
10	0	0	0	0	513	726	
11	0	0	0	0	513	726	
12	0	0	0	0	513	725	
13	0	0	0	0	516	726	
14	0	0	0	0	516	726	
15	0	0	0	0	515	726	
0	0	0	0	0	515	726	
1	0	0	0	0	518	726	
2	0	0	0	0	521	726	
3	0	0	0	0	524	726	
4	0	0	0	0	524	726	
5	0	0	0	0	523	726	
6	0	0	0	0	524	725	
7	0	0	0	0	525	726	
8	0	0	0	0	525	725	
9	0	0	0	0	526	726	
10	0	0	0	0	525	725	
11	0	0	0	0	523	725	
12	0	0	0	0	521	726	
13	0	0	0	0	515	725	
14	0	0	0	0	509	725	
15	0	0	0	0	504	725	
0	0	0	0	0	501	725	
1	0	0	0	0	499	726	
2	0	0	0	0	499	725	
3	0	0	0	0	502	725	
4	0	0	0	0	504	725	
5	0	0	0	0	509	725	
6	0	0	0	0	515	725	
7	0	0	0	0	520	725	
8	0	0	0	0	524	725	
9	0	0	0	0	528	725	
10	0	0	0	0	529	725	
11	0	0	0	0	531	725	
12	0	0	0	0	532	725	
13	0	0	0	0	532	725	
14	0	0	0	0	535	725	
15	0	0	0	0	535	724	
0	0	0	0	0	535	725	
1	0	0	0	0	536	725	
2	0	0	0	0	536	724	
3	0	0	0	0	537	725	
4	0	0	0	0	537	724	
5	0	0	0	0	538	725	
6	0	0	0	0	536	725	
7	0	0	0	0	535	725	
8	0	0	0	0	535	724	
9	0	0	0	0	535	724	
10	0	0	0	0	537	724	
11	0	0	0	0	540	724	
12	0	0	0	0	543	725	
13	0	0	0	0	545	724	
14	0	0	0	0	544	724	
15	0	0	0	0	539	724	
0	0	0	0	0	533	724	
1	0	0	0	0	529	724	
2	0	0	0	0	527	724	
3	0	0	0	0	529	724	
4	0	0	0	0	532	724	
5	0	0	0	0	532	724	
6	0	0	0	0	532	724	
7	0	0	0	0	534	724	
8	0	0	0	0	536	724	
9	0	0	0	0	537	724	
10	0	0	0	0	539	724	
11	0	0	0	0	537	724	
12	0	0	0	0	534	724	
13	0	0	0	0	530	723	
14	0	0	0	0	530	724	
15	0	0	0	0	530	724	
0	0	0	0	0	530	724	
1	0	0	0	0	530	724	
2	0	0	0	0	532	724	
3	0	0	0	0	535	724	
4	0	0	0	0	537	724	
5	0	0	0	0	540	724	
6	0	0	0	0	542	724	
7	0	0	0	0	543	723	
8	0	0	0	0	543	724	
9	0	0	0	0	545	723	
10	0	0	0	0	550	724	
11	0	0	0	0	554	724	
12	0	0	0	0	557	723	
13	0	0	0	0	559	724	
14	0	0	0	0	561	723	
15	0	0	0	0	563	723	
0	0	0	0	0	563	723	
1	0	0	0	0	563	723	
2	0	0	0	0	563	723	
3	0	0	0	0	563	723	
4	0	0	0	0	560	723	
5	0	0	0	0	560	723	
6	0	0	0	0	558	723	
7	0	0	0	0	559	723	
8	0	0	0	0	561	723	
9	0	0	0	0	564	723	
10	0	0	0	0	568	723	
11	0	0	0	0	572	723	
12	0	0	0	0	575	723	
13	0	0	0	0	575	723	
14	0	0	0	0	576	723	
15	0	0	0	0	577	723	
0	0	0	0	0	575	723	
1	0	0	0	0	575	723	
2	0	0	0	0	572	723	
3	0	0	0	0	568	723	
4	0	0	0	0	566	723	
5	0	0	0	0	562	723	
6	0	0	0	0	559	723	
7	0	0	0	0	556	723	
8	0	0	0	0	553	723	
9	0	0	0	0	551	723	
10	0	0	0	0	553	722	
11	0	0	0	0	556	723	
12	0	0	0	0	553	723	
13	0	0	0	0	553	723	
14	0	0	0	0	555	723	
15	0	0	0	0	554	723	
0	0	0	0	0	555	723	
1	0	0	0	0	558	723	
2	0	0	0	0	563	723	
3	0	0	0	0	567	723	
4	0	0	0	0	569	723	
5	0	0	0	0	568	722	
6	0	0	0	0	564	722	
7	0	0	0	0	558	723	
8	0	0	0	0	547	722	
9	0	0	0	0	535	722	
10	0	0	0	0	531	723	
11	0	0	0	0	532	722	
12	0	0	0	0	533	722	
13	0	0	0	0	535	722	
14	0	0	0	0	535	722	
15	0	0	0	0	534	722	
0	0	0	0	0	533	722	
1	0	0	0	0	533	722	
2	0	0	0	0	534	722	
3	0	0	0	0	535	722	
4	0	0	0	0	534	722	
5	0	0	0	0	531	722	
6	0	0	0	0	531	722	
7	0	0	0	0	534	722	
8	0	0	0	0	536	722	
9	0	0	0	0	537	722	
10	0	0	0	0	539	722	
11	0	0	0	0	540	722	
12	0	0	0	0	540	722	
13	0	0	0	0	540	721	
14	0	0	0	0	537	722	
15	0	0	0	0	531	722	
0	0	0	0	0	526	722	
1	0	0	0	0	523	721	
2	0	0	0	0	524	721	
3	0	0	0	0	525	722	
4	0	0	0	0	524	721	
5	0	0	0	0	524	721	
6	0	0	0	0	524	721	
7	0	0	0	0	524	721	
8	0	0	0	0	526	722	
9	0	0	0	0	526	721	
10	0	0	0	0	526	721	
11	0	0	0	0	527	721	
12	0	0	0	0	529	721	
13	0	0	0	0	533	722	
14	0	0	0	0	535	721	
15	0	0	0	0	534	721	
0	0	0	0	0	533	721	
1	0	0	0	0	531	721	
2	0	0	0	0	528	721	
3	0	0	0	0	524	721	
4	0	0	0	0	521	721	
5	0	0	0	0	516	721	
6	0	0	0	0	511	721	
7	0	0	0	0	511	721	
8	0	0	0	0	513	721	
9	0	0	0	0	515	721	
10	0	0	0	0	515	721	
11	0	0	0	0	517	721	
12	0	0	0	0	519	721	
13	0	0	0	0	521	721	
14	0	0	0	0	522	721	
15	0	0	0	0	519	721	
0	0	0	0	0	517	721	
1	0	0	0	0	514	721	
2	0	0	0	0	510	721	
3	0	0	0	0	509	721	
4	0	0	0	0	507	721	
5	0	0	0	0	505	721	
6	0	0	0	0	502	721	
7	0	0	0	0	500	721	
8	0	0	0	0	500	721	
9	0	0	0	0	501	721	
10	0	0	0	0	499	721	
11	0	0	0	0	497	721	
12	0	0	0	0	494	721	
13	0	0	0	0	493	721	
14	0	0	0	0	495	720	
15	0	0	0	0	496	720	
0	0	0	0	0	495	721	
1	0	0	0	0	492	720	
2	0	0	0	0	490	720	
3	0	0	0	0	489	720	
4	0	0	0	0	487	720	
5	0	0	0	0	487	721	
6	0	0	0	0	488	721	
7	0	0	0	0	491	720	
8	0	0	0	0	492	720	
9	0	0	0	0	496	720	
10	0	0	0	0	502	721	
11	0	0	0	0	504	720	
12	0	0	0	0	508	720	
13	0	0	0	0	509	720	
14	0	0	0	0	510	720	
15	0	0	0	0	515	720	
0	0	0	0	0	519	720	
1	0	0	0	0	520	720	
2	0	0	0	0	519	720	
3	0	0	0	0	515	720	
4	0	0	0	0	512	720	
5	0	0	0	0	511	720	
6	0	0	0	0	510	720	
7	0	0	0	0	510	720	
8	0	0	0	0	509	720	
9	0	0	0	0	508	720	
10	0	0	0	0	502	720	
11	0	0	0	0	496	720	
12	0	0	0	0	494	720	
13	0	0	0	0	489	720	
14	0	0	0	0	488	720	
15	0	0	0	0	489	719	
0	0	0	0	0	490	720	
1	0	0	0	0	492	719	
2	0	0	0	0	492	719	
3	0	0	0	0	492	720	
4	0	0	0	0	495	719	
5	0	0	0	0	496	719	
6	0	0	0	0	493	719	
7	0	0	0	0	490	719	
8	0	0	0	0	488	719	
9	0	0	0	0	487	719	
10	0	0	0	0	488	719	
11	0	0	0	0	489	719	
12	0	0	0	0	489	719	
13	0	0	0	0	490	719	
14	0	0	0	0	489	719	
15	0	0	0	0	492	719	
0	0	0	0	0	493	719	
1	0	0	0	0	494	719	
2	0	0	0	0	493	719	
3	0	0	0	0	492	719	
4	0	0	0	0	493	719	
5	0	0	0	0	496	719	
6	0	0	0	0	497	719	
7	0	0	0	0	498	719	
8	0	0	0	0	499	719	
9	0	0	0	0	500	719	
10	0	0	0	0	503	719	
11	0	0	0	0	505	719	
12	0	0	0	0	507	719	
13	0	0	0	0	508	719	
14	0	0	0	0	510	719	
15	0	0	0	0	514	719	
0	0	0	0	0	520	718	
1	0	0	0	0	526	719	
2	0	0	0	0	527	719	
3	0	0	0	0	528	719	
4	0	0	0	0	529	719	
5	0	0	0	0	529	719	
6	0	0	0	0	528	719	
7	0	0	0	0	527	719	
8	0	0	0	0	528	719	
9	0	0	0	0	529	719	
10	0	0	0	0	530	719	
11	0	0	0	0	531	719	
12	0	0	0	0	532	719	
13	0	0	0	0	535	719	
14	0	0	0	0	540	718	
15	0	0	0	0	543	718	
0	0	0	0	0	544	719	
1	0	0	0	0	543	718	
2	0	0	0	0	542	719	
3	0	0	0	0	539	718	
4	0	0	0	0	536	718	
5	0	0	0	0	535	718	
6	0	0	0	0	536	718	
7	0	0	0	0	536	718	
8	0	0	0	0	536	718	
9	0	0	0	0	536	718	
10	0	0	0	0	536	718	
11	0	0	0	0	536	718	
12	0	0	0	0	539	718	
13	0	0	0	0	543	718	
14	0	0	0	0	547	718	
15	0	0	0	0	551	718	
0	0	0	0	0	555	718	
1	0	0	0	0	557	718	
2	0	0	0	0	558	718	
3	0	0	0	0	555	718	
4	0	0	0	0	551	718	
5	0	0	0	0	547	718	
6	0	0	0	0	543	718	
7	0	0	0	0	538	718	
8	0	0	0	0	534	717	
9	0	0	0	0	532	718	
10	0	0	0	0	528	718	
11	0	0	0	0	523	718	
12	0	0	0	0	520	718	
13	0	0	0	0	520	717	
14	0	0	0	0	522	718	
15	0	0	0	0	524	718	
0	0	0	0	0	521	717	
1	0	0	0	0	519	717	
2	0	0	0	0	517	717	
3	0	0	0	0	516	718	
4	0	0	0	0	515	717	
5	0	0	0	0	515	717	
6	0	0	0	0	514	717	
7	0	0	0	0	515	717	
8	0	0	0	0	518	717	
9	0	0	0	0	519	717	
10	0	0	0	0	519	717	
11	0	0	0	0	518	717	
12	0	0	0	0	519	717	
13	0	0	0	0	519	718	
14	0	0	0	0	517	717	
15	0	0	0	0	515	717	
0	0	0	0	0	517	717	
1	0	0	0	0	517	717	
2	0	0	0	0	518	717	
3	0	0	0	0	519	716	
4	0	0	0	0	519	717	
5	0	0	0	0	519	717	
6	0	0	0	0	518	717	
7	0	0	0	0	517	717	
8	0	0	0	0	519	717	
9	0	0	0	0	518	717	
10	0	0	0	0	516	717	
11	0	0	0	0	514	716	
12	0	0	0	0	512	717	
13	0	0	0	0	510	717	
14	0	0	0	0	510	717	
15	0	0	0	0	510	716	
0	0	0	0	0	511	716	
1	0	0	0	0	512	717	
2	0	0	0	0	511	716	
3	0	0	0	0	512	717	
4	0	0	0	0	513	716	
5	0	0	0	0	513	716	
6	0	0	0	0	515	716	
7	0	0	0	0	515	716	
8	0	0	0	0	518	716	
9	0	0	0	0	521	716	
10	0	0	0	0	522	716	
11	0	0	0	0	523	716	
12	0	0	0	0	521	716	
13	0	0	0	0	521	716	
14	0	0	0	0	521	716	
15	0	0	0	0	521	716	
0	0	0	0	0	520	716	
1	0	0	0	0	519	716	
2	0	0	0	0	516	716	
3	0	0	0	0	520	716	
4	0	0	0	0	525	716	
5	0	0	0	0	530	716	
6	0	0	0	0	533	716	
7	0	0	0	0	533	716	
8	0	0	0	0	532	716	
9	0	0	0	0	532	716	
10	0	0	0	0	532	716	
11	0	0	0	0	530	716	
12	0	0	0	0	530	716	
13	0	0	0	0	529	716	
14	0	0	0	0	531	715	
15	0	0	0	0	531	716	
0	0	0	0	0	530	716	
1	0	0	0	0	532	716	
2	0	0	0	0	536	716	
3	0	0	0	0	539	716	
4	0	0	0	0	543	716	
5	0	0	0	0	545	715	
6	0	0	0	0	550	716	
7	0	0	0	0	554	715	
8	0	0	0	0	556	715	
9	0	0	0	0	556	716	
10	0	0	0	0	559	715	
11	0	0	0	0	561	715	
12	0	0	0	0	564	715	
13	0	0	0	0	566	715	
14	0	0	0	0	568	716	
15	0	0	0	0	572	715	
0	0	0	0	0	577	715	
1	0	0	0	0	578	715	
2	0	0	0	0	572	715	
3	0	0	0	0	563	715	
4	0	0	0	0	549	715	
5	0	0	0	0	540	715	
6	0	0	0	0	534	715	
7	0	0	0	0	529	715	
8	0	0	0	0	528	715	
9	0	0	0	0	531	715	
10	0	0	0	0	536	715	
11	0	0	0	0	540	715	
12	0	0	0	0	545	715	
13	0	0	0	0	545	715	
14	0	0	0	0	547	715	
15	0	0	0	0	546	715	
0	0	0	0	0	545	715	
1	0	0	0	0	546	714	
2	0	0	0	0	546	714	
3	0	0	0	0	543	715	
4	0	0	0	0	541	715	
5	0	0	0	0	537	714	
6	0	0	0	0	535	714	
7	0	0	0	0	534	715	
8	0	0	0	0	534	714	
9	0	0	0	0	533	715	
10	0	0	0	0	534	714	
11	0	0	0	0	534	714	
12	0	0	0	0	534	714	
13	0	0	0	0	533	714	
14	0	0	0	0	533	714	
15	0	0	0	0	534	714	
0	0	0	0	0	536	714	
1	0	0	0	0	537	714	
2	0	0	0	0	539	714	
3	0	0	0	0	541	714	
4	0	0	0	0	542	714	
5	0	0	0	0	541	714	
6	0	0	0	0	541	715	
7	0	0	0	0	541	714	
8	0	0	0	0	541	714	
9	0	0	0	0	539	713	
10	0	0	0	0	535	714	
11	0	0	0	0	530	714	
12	0	0	0	0	525	714	
13	0	0	0	0	517	714	
14	0	0	0	0	508	714	
15	0	0	0	0	499	713	
0	0	0	0	0	491	714	
1	0	0	0	0	485	713	
2	0	0	0	0	479	714	
3	0	0	0	0	476	714	
4	0	0	0	0	474	713	
5	0	0	0	0	474	714	
6	0	0	0	0	472	714	
7	0	0	0	0	473	713	
8	0	0	0	0	476	713	
9	0	0	0	0	478	713	
10	0	0	0	0	480	714	
11	0	0	0	0	482	713	
12	0	0	0	0	484	713	
13	0	0	0	0	487	713	
14	0	0	0	0	488	713	
15	0	0	0	0	489	713	
0	0	0	0	0	486	713	
1	0	0	0	0	481	713	
2	0	0	0	0	476	713	
3	0	0	0	0	473	713	
4	0	0	0	0	474	714	
5	0	0	0	0	474	713	
6	0	0	0	0	473	713	
7	0	0	0	0	475	713	
8	0	0	0	0	478	713	
9	0	0	0	0	481	713	
10	0	0	0	0	484	713	
11	0	0	0	0	488	713	
12	0	0	0	0	489	713	
13	0	0	0	0	489	713	
14	0	0	0	0	488	713	
15	0	0	0	0	491	713	
0	0	0	0	0	492	713	
1	0	0	0	0	491	713	
2	0	0	0	0	488	712	
3	0	0	0	0	484	713	
4	0	0	0	0	485	713	
5	0	0	0	0	488	713	
6	0	0	0	0	494	713	
7	0	0	0	0	498	713	
8	0	0	0	0	502	713	
9	0	0	0	0	505	713	
10	0	0	0	0	508	712	
11	0	0	0	0	510	713	
12	0	0	0	0	508	712	
13	0	0	0	0	504	713	
14	0	0	0	0	503	712	
15	0	0	0	0	501	712	
0	0	0	0	0	500	713	
1	0	0	0	0	498	712	
2	0	0	0	0	496	713	
3	0	0	0	0	495	713	
4	0	0	0	0	496	712	
5	0	0	0	0	496	712	
6	0	0	0	0	496	712	
7	0	0	0	0	496	713	
8	0	0	0	0	497	712	
9	0	0	0	0	498	713	
10	0	0	0	0	500	712	
11	0	0	0	0	504	712	
12	0	0	0	0	505	712	
13	0	0	0	0	504	712	
14	0	0	0	0	504	713	
15	0	0	0	0	500	712	
0	0	0	0	0	494	712	
1	0	0	0	0	489	713	
2	0	0	0	0	483	713	
3	0	0	0	0	477	712	
4	0	0	0	0	472	713	
5	0	0	0	0	469	712	
6	0	0	0	0	468	713	
7	0	0	0	0	468	712	
8	0	0	0	0	472	712	
9	0	0	0	0	481	712	
10	0	0	0	0	492	712	
11	0	0	0	0	504	713	
12	0	0	0	0	516	712	
13	0	0	0	0	531	712	
14	0	0	0	0	550	712	
15	0	0	0	0	574	712	
0	0	0	0	0	602	712	
1	0	0	0	0	632	712	
2	0	0	0	0	665	712	
3	0	0	0	0	698	712	
4	0	0	0	0	731	712	
5	0	0	0	0	758	712	
6	0	0	0	0	782	712	
7	0	0	0	0	801	712	
8	0	0	0	0	823	712	
9	0	0	0	0	848	712	
10	0	0	0	0	875	712	
11	0	0	0	0	899	712	
12	0	0	0	0	918	712	
13	0	0	0	0	931	712	
14	0	0	0	0	936	711	
15	0	0	0	0	934	712	
0	0	0	0	0	921	711	
1	0	0	0	0	902	712	
2	0	0	0	0	869	712	
3	0	0	0	0	827	711	
4	0	0	0	0	780	712	
5	0	0	0	0	729	712	
6	0	0	0	0	680	711	
7	0	0	0	0	634	711	
8	0	0	0	0	592	711	
9	0	0	0	0	555	711	
10	0	0	0	0	523	711	
11	0	0	0	0	497	711	
12	0	0	0	0	477	711	
13	0	0	0	0	459	711	
14	0	0	0	0	443	711	
15	0	0	0	0	429	711	
0	0	0	0	0	418	711	
1	0	0	0	0	408	711	
2	0	0	0	0	396	711	
3	0	0	0	0	382	711	
4	0	0	0	0	367	711	
5	0	0	0	0	352	711	
6	0	0	0	0	342	711	
7	0	0	0	0	335	711	
8	0	0	0	0	329	711	
9	0	0	0	0	326	711	
10	0	0	0	0	326	711	
11	0	0	0	0	326	711	
12	0	0	0	0	329	711	
13	0	0	0	0	336	711	
14	0	0	0	0	344	711	
15	0	0	0	0	347	711	
0	0	0	0	0	351	711	
1	0	0	0	0	356	711	
2	0	0	0	0	364	711	
3	0	0	0	0	370	711	
4	0	0	0	0	374	711	
5	0	0	0	0	378	711	
6	0	0	0	0	381	711	
7	0	0	0	0	385	711	
8	0	0	0	0	388	711	
9	0	0	0	0	391	711	
10	0	0	0	0	394	711	
11	0	0	0	0	397	711	
12	0	0	0	0	400	711	
13	0	0	0	0	403	711	
14	0	0	0	0	407	711	
15	0	0	0	0	409	711	
0	0	0	0	0	411	710	
1	0	0	0	0	414	711	
2	0	0	0	0	418	711	
3	0	0	0	0	422	711	
4	0	0	0	0	423	711	
5	0	0	0	0	424	711	
6	0	0	0	0	423	711	
7	0	0	0	0	422	711	
8	0	0	0	0	422	711	
9	0	0	0	0	421	711	
10	0	0	0	0	421	710	
11	0	0	0	0	423	711	
12	0	0	0	0	425	711	
13	0	0	0	0	429	711	
14	0	0	0	0	434	710	
15	0	0	0	0	438	710	
0	0	0	0	0	440	711	
1	0	0	0	0	441	710	
2	0	0	0	0	445	711	
3	0	0	0	0	447	710	
4	0	0	0	0	446	710	
5	0	0	0	0	442	711	
6	0	0	0	0	439	710	
7	0	0	0	0	435	710	
8	0	0	0	0	435	711	
9	0	0	0	0	437	710	
10	0	0	0	0	441	711	
11	0	0	0	0	447	710	
12	0	0	0	0	452	710	
13	0	0	0	0	459	710	
14	0	0	0	0	463	710	
15	0	0	0	0	465	710	
0	0	0	0	0	467	710	
1	0	0	0	0	470	710	
2	0	0	0	0	471	710	
3	0	0	0	0	474	710	
4	0	0	0	0	476	710	
5	0	0	0	0	476	710	
6	0	0	0	0	476	710	
7	0	0	0	0	476	710	
8	0	0	0	0	476	710	
9	0	0	0	0	478	710	
10	0	0	0	0	480	710	
11	0	0	0	0	482	710	
12	0	0	0	0	484	710	
13	0	0	0	0	485	710	
14	0	0	0	0	487	710	
15	0	0	0	0	489	710	
0	0	0	0	0	490	710	
1	0	0	0	0	491	710	
2	0	0	0	0	492	710	
3	0	0	0	0	491	710	
4	0	0	0	0	493	710	
5	0	0	0	0	495	710	
6	0	0	0	0	495	710	
7	0	0	0	0	494	710	
8	0	0	0	0	492	709	
9	0	0	0	0	492	710	
10	0	0	0	0	494	710	
11	0	0	0	0	498	710	
12	0	0	0	0	502	709	
13	0	0	0	0	504	710	
14	0	0	0	0	506	709	
15	0	0	0	0	508	709	
0	0	0	0	0	510	709	
1	0	0	0	0	512	709	
2	0	0	0	0	512	709	
3	0	0	0	0	514	710	
4	0	0	0	0	517	709	
5	0	0	0	0	521	709	
6	0	0	0	0	522	709	
7	0	0	0	0	521	709	
8	0	0	0	0	520	709	
9	0	0	0	0	516	709	
10	0	0	0	0	515	709	
11	0	0	0	0	516	709	
12	0	0	0	0	518	710	
13	0	0	0	0	519	709	
14	0	0	0	0	522	709	
15	0	0	0	0	525	709	
0	0	0	0	0	527	709	
1	0	0	0	0	530	709	
2	0	0	0	0	531	709	
3	0	0	0	0	531	709	
4	0	0	0	0	531	709	
5	0	0	0	0	532	709	
6	0	0	0	0	533	710	
7	0	0	0	0	533	709	
8	0	0	0	0	533	709	
9	0	0	0	0	531	709	
10	0	0	0	0	530	709	
11	0	0	0	0	530	710	
12	0	0	0	0	530	709	
13	0	0	0	0	531	709	
14	0	0	0	0	534	709	
15	0	0	0	0	536	708	
0	0	0	0	0	540	709	
1	0	0	0	0	541	709	
2	0	0	0	0	543	709	
3	0	0	0	0	544	709	
4	0	0	0	0	542	709	
5	0	0	0	0	542	709	
6	0	0	0	0	541	709	
7	0	0	0	0	541	708	
8	0	0	0	0	542	709	
9	0	0	0	0	543	708	
10	0	0	0	0	544	709	
11	0	0	0	0	548	708	
12	0	0	0	0	554	708	
13	0	0	0	0	561	708	
14	0	0	0	0	565	708	
15	0	0	0	0	566	709	
0	0	0	0	0	563	708	
1	0	0	0	0	557	709	
2	0	0	0	0	551	708	
3	0	0	0	0	547	708	
4	0	0	0	0	543	709	
5	0	0	0	0	538	708	
6	0	0	0	0	536	708	
7	0	0	0	0	537	708	
8	0	0	0	0	537	708	
9	0	0	0	0	536	708	
10	0	0	0	0	537	709	
11	0	0	0	0	538	709	
12	0	0	0	0	540	708	
13	0	0	0	0	539	708	
14	0	0	0	0	537	709	
15	0	0	0	0	536	708	
0	0	0	0	0	535	708	
1	0	0	0	0	534	708	
2	0	0	0	0	533	708	
3	0	0	0	0	531	708	
4	0	0	0	0	529	708	
5	0	0	0	0	525	708	
6	0	0	0	0	520	708	
7	0	0	0	0	518	708	
8	0	0	0	0	516	709	
9	0	0	0	0	515	708	
10	0	0	0	0	513	708	
11	0	0	0	0	512	708	
12	0	0	0	0	512	708	
13	0	0	0	0	517	708	
14	0	0	0	0	523	708	
15	0	0	0	0	528	708	
0	0	0	0	0	532	708	
1	0	0	0	0	535	708	
2	0	0	0	0	539	708	
3	0	0	0	0	541	708	
4	0	0	0	0	543	708	
5	0	0	0	0	542	708	
6	0	0	0	0	542	708	
7	0	0	0	0	542	708	
8	0	0	0	0	541	708	
9	0	0	0	0	541	708	
10	0	0	0	0	540	708	
11	0	0	0	0	539	708	
12	0	0	0	0	538	708	
13	0	0	0	0	537	708	
14	0	0	0	0	539	708	
15	0	0	0	0	540	708	
0	0	0	0	0	540	707	
1	0	0	0	0	540	708	
2	0	0	0	0	541	708	
3	0	0	0	0	544	708	
4	0	0	0	0	546	708	
5	0	0	0	0	547	708	
6	0	0	0	0	546	708	
7	0	0	0	0	544	707	
8	0	0	0	0	543	708	
9	0	0	0	0	542	707	
10	0	0	0	0	541	707	
11	0	0	0	0	540	708	
12	0	0	0	0	538	707	
13	0	0	0	0	536	707	
14	0	0	0	0	538	708	
15	0	0	0	0	540	707	
0	0	0	0	0	544	708	
1	0	0	0	0	547	707	
2	0	0	0	0	551	707	
3	0	0	0	0	555	708	
4	0	0	0	0	558	707	
5	0	0	0	0	559	708	
6	0	0	0	0	560	707	
7	0	0	0	0	559	707	
8	0	0	0	0	557	707	
9	0	0	0	0	557	708	
10	0	0	0	0	556	708	
11	0	0	0	0	554	708	
12	0	0	0	0	551	707	
13	0	0	0	0	550	707	
14	0	0	0	0	547	707	
15	0	0	0	0	548	707	
0	0	0	0	0	548	707	
1	0	0	0	0	549	707	
2	0	0	0	0	551	707	
3	0	0	0	0	553	707	
4	0	0	0	0	555	707	
5	0	0	0	0	557	708	
6	0	0	0	0	557	708	
7	0	0	0	0	556	707	
8	0	0	0	0	555	707	
9	0	0	0	0	553	707	
10	0	0	0	0	551	707	
11	0	0	0	0	548	707	
12	0	0	0	0	545	707	
13	0	0	0	0	542	707	
14	0	0	0	0	538	707	
15	0	0	0	0	536	707	
0	0	0	0	0	536	707	
1	0	0	0	0	534	707	
2	0	0	0	0	530	707	
3	0	0	0	0	527	707	
4	0	0	0	0	527	707	
5	0	0	0	0	527	707	
6	0	0	0	0	528	707	
7	0	0	0	0	529	707	
8	0	0	0	0	527	707	
9	0	0	0	0	524	707	
10	0	0	0	0	521	707	
11	0	0	0	0	519	707	
12	0	0	0	0	518	707	
13	0	0	0	0	518	707	
14	0	0	0	0	517	707	
15	0	0	0	0	516	707	
0	0	0	0	0	515	707	
1	0	0	0	0	514	707	
2	0	0	0	0	514	707	
3	0	0	0	0	514	707	
4	0	0	0	0	514	707	
5	0	0	0	0	513	707	
6	0	0	0	0	512	707	
7	0	0	0	0	511	707	
8	0	0	0	0	508	707	
9	0	0	0	0	507	707	
10	0	0	0	0	505	707	
11	0	0	0	0	503	707	
12	0	0	0	0	503	707	
13	0	0	0	0	501	707	
14	0	0	0	0	498	707	
15	0	0	0	0	496	707	
0	0	0	0	0	494	707	
1	0	0	0	0	493	707	
2	0	0	0	0	494	707	
3	0	0	0	0	494	707	
4	0	0	0	0	494	707	
5	0	0	0	0	494	707	
6	0	0	0	0	497	707	
7	0	0	0	0	502	707	
8	0	0	0	0	507	707	
9	0	0	0	0	511	707	
10	0	0	0	0	511	707	
11	0	0	0	0	509	707	
12	0	0	0	0	508	707	
13	0	0	0	0	509	707	
14	0	0	0	0	508	707	
15	0	0	0	0	506	707	
0	0	0	0	0	502	707	
1	0	0	0	0	496	707	
2	0	0	0	0	490	707	
3	0	0	0	0	489	707	
4	0	0	0	0	490	707	
5	0	0	0	0	492	707	
6	0	0	0	0	494	707	
7	0	0	0	0	496	707	
8	0	0	0	0	499	707	
9	0	0	0	0	499	707	
10	0	0	0	0	499	707	
11	0	0	0	0	497	707	
12	0	0	0	0	499	707	
13	0	0	0	0	502	707	
14	0	0	0	0	503	707	
15	0	0	0	0	502	707	
0	0	0	0	0	499	707	
1	0	0	0	0	496	707	
2	0	0	0	0	496	706	
3	0	0	0	0	496	707	
4	0	0	0	0	497	707	
5	0	0	0	0	495	707	
6	0	0	0	0	494	707	
7	0	0	0	0	496	706	
8	0	0	0	0	499	707	
9	0	0	0	0	503	707	
10	0	0	0	0	507	707	
11	0	0	0	0	510	707	
12	0	0	0	0	514	707	
13	0	0	0	0	518	707	
14	0	0	0	0	521	707	
15	0	0	0	0	525	707	
0	0	0	0	0	527	707	
1	0	0	0	0	528	707	
2	0	0	0	0	530	706	
3	0	0	0	0	531	707	
4	0	0	0	0	529	707	
5	0	0	0	0	529	707	
6	0	0	0	0	529	706	
7	0	0	0	0	529	706	
8	0	0	0	0	531	707	
9	0	0	0	0	533	707	
10	0	0	0	0	533	707	
11	0	0	0	0	530	707	
12	0	0	0	0	528	706	
13	0	0	0	0	529	706	
14	0	0	0	0	530	707	
15	0	0	0	0	532	707	
0	0	0	0	0	531	706	
1	0	0	0	0	528	706	
2	0	0	0	0	526	706	
3	0	0	0	0	526	706	
4	0	0	0	0	526	707	
5	0	0	0	0	527	706	
6	0	0	0	0	527	706	
7	0	0	0	0	527	706	
8	0	0	0	0	527	706	
9	0	0	0	0	528	706	
10	0	0	0	0	530	706	
11	0	0	0	0	531	706	
12	0	0	0	0	528	706	
13	0	0	0	0	525	706	
14	0	0	0	0	521	706	
15	0	0	0	0	516	706	
0	0	0	0	0	511	706	
1	0	0	0	0	513	706	
2	0	0	0	0	518	706	
3	0	0	0	0	526	706	
4	0	0	0	0	539	706	
5	0	0	0	0	553	706	
6	0	0	0	0	569	706	
7	0	0	0	0	579	706	
8	0	0	0	0	583	706	
9	0	0	0	0	584	706	
10	0	0	0	0	581	706	
11	0	0	0	0	578	706	
12	0	0	0	0	575	706	
13	0	0	0	0	570	706	
14	0	0	0	0	563	706	
15	0	0	0	0	558	706	
0	0	0	0	0	558	706	
1	0	0	0	0	556	706	
2	0	0	0	0	552	706	
3	0	0	0	0	547	706	
4	0	0	0	0	542	706	
5	0	0	0	0	535	706	
6	0	0	0	0	525	706	
7	0	0	0	0	518	706	
8	0	0	0	0	515	706	
9	0	0	0	0	514	706	
10	0	0	0	0	513	706	
11	0	0	0	0	515	706	
12	0	0	0	0	520	706	
13	0	0	0	0	525	706	
14	0	0	0	0	531	706	
15	0	0	0	0	536	706	
0	0	0	0	0	542	706	
1	0	0	0	0	548	706	
2	0	0	0	0	553	706	
3	0	0	0	0	554	706	
4	0	0	0	0	552	706	
5	0	0	0	0	551	706	
6	0	0	0	0	550	706	
7	0	0	0	0	547	706	
8	0	0	0	0	543	706	
9	0	0	0	0	539	706	
10	0	0	0	0	535	706	
11	0	0	0	0	533	706	
12	0	0	0	0	531	706	
13	0	0	0	0	525	706	
14	0	0	0	0	518	706	
15	0	0	0	0	513	706	
0	0	0	0	0	513	706	
1	0	0	0	0	515	706	
2	0	0	0	0	516	706	
3	0	0	0	0	516	706	
4	0	0	0	0	518	706	
5	0	0	0	0	516	706	
6	0	0	0	0	517	706	
7	0	0	0	0	516	706	
8	0	0	0	0	517	706	
9	0	0	0	0	515	706	
10	0	0	0	0	515	706	
11	0	0	0	0	518	706	
12	0	0	0	0	516	705	
13	0	0	0	0	514	706	
14	0	0	0	0	513	706	
15	0	0	0	0	513	706	
0	0	0	0	0	513	706	
1	0	0	0	0	513	705	
2	0	0	0	0	513	706	
3	0	0	0	0	513	706	
4	0	0	0	0	514	706	
5	0	0	0	0	515	706	
6	0	0	0	0	517	706	
7	0	0	0	0	518	706	
8	0	0	0	0	518	705	
9	0	0	0	0	517	705	
10	0	0	0	0	519	706	
11	0	0	0	0	524	705	
12	0	0	0	0	527	706	
13	0	0	0	0	534	706	
14	0	0	0	0	540	706	
15	0	0	0	0	543	705	
0	0	0	0	0	548	705	
1	0	0	0	0	550	706	
2	0	0	0	0	551	705	
3	0	0	0	0	553	705	
4	0	0	0	0	552	706	
5	0	0	0	0	551	705	
6	0	0	0	0	550	706	
7	0	0	0	0	549	706	
8	0	0	0	0	548	705	
9	0	0	0	0	549	705	
10	0	0	0	0	551	705	
11	0	0	0	0	554	706	
12	0	0	0	0	557	705	
13	0	0	0	0	558	705	
14	0	0	0	0	559	705	
15	0	0	0	0	561	705	
0	0	0	0	0	561	705	
1	0	0	0	0	562	705	
2	0	0	0	0	562	706	
3	0	0	0	0	561	705	
4	0	0	0	0	561	705	
5	0	0	0	0	561	705	
6	0	0	0	0	564	705	
7	0	0	0	0	567	705	
8	0	0	0	0	569	705	
9	0	0	0	0	573	705	
10	0	0	0	0	575	706	
11	0	0	0	0	575	705	
12	0	0	0	0	575	705	
13	0	0	0	0	576	705	
14	0	0	0	0	577	705	
15	0	0	0	0	578	705	
0	0	0	0	0	577	705	
1	0	0	0	0	575	705	
2	0	0	0	0	572	706	
3	0	0	0	0	569	705	
4	0	0	0	0	568	705	
5	0	0	0	0	565	705	
6	0	0	0	0	561	705	
7	0	0	0	0	557	705	
8	0	0	0	0	553	705	
9	0	0	0	0	551	705	
10	0	0	0	0	550	705	
11	0	0	0	0	551	705	
12	0	0	0	0	552	705	
13	0	0	0	0	551	705	
14	0	0	0	0	551	705	
15	0	0	0	0	551	705	
0	0	0	0	0	554	705	
1	0	0	0	0	554	705	
2	0	0	0	0	551	705	
3	0	0	0	0	549	705	
4	0	0	0	0	547	705	
5	0	0	0	0	544	705	
6	0	0	0	0	537	705	
7	0	0	0	0	532	705	
8	0	0	0	0	525	705	
9	0	0	0	0	519	705	
10	0	0	0	0	515	705	
11	0	0	0	0	512	704	
12	0	0	0	0	509	705	
13	0	0	0	0	504	705	
14	0	0	0	0	503	705	
15	0	0	0	0	503	705	
0	0	0	0	0	503	705	
1	0	0	0	0	502	705	
2	0	0	0	0	501	705	
3	0	0	0	0	498	705	
4	0	0	0	0	497	705	
5	0	0	0	0	498	705	
6	0	0	0	0	496	705	
7	0	0	0	0	494	705	
8	0	0	0	0	489	705	
9	0	0	0	0	486	705	
10	0	0	0	0	484	705	
11	0	0	0	0	483	705	
12	0	0	0	0	482	705	
13	0	0	0	0	479	705	
14	0	0	0	0	476	704	
15	0	0	0	0	475	705	
0	0	0	0	0	477	704	
1	0	0	0	0	479	705	
2	0	0	0	0	481	704	
3	0	0	0	0	480	704	
4	0	0	0	0	480	705	
5	0	0	0	0	477	705	
6	0	0	0	0	473	705	
7	0	0	0	0	470	705	
8	0	0	0	0	466	705	
9	0	0	0	0	463	705	
10	0	0	0	0	461	704	
11	0	0	0	0	459	705	
12	0	0	0	0	459	705	
13	0	0	0	0	459	705	
14	0	0	0	0	460	704	
15	0	0	0	0	461	704	
0	0	0	0	0	463	705	
1	0	0	0	0	466	705	
2	0	0	0	0	468	704	
3	0	0	0	0	470	705	
4	0	0	0	0	470	704	
5	0	0	0	0	470	705	
6	0	0	0	0	470	704	
7	0	0	0	0	469	704	
8	0	0	0	0	468	704	
9	0	0	0	0	466	704	
10	0	0	0	0	465	705	
11	0	0	0	0	466	704	
12	0	0	0	0	468	704	
13	0	0	0	0	470	705	
14	0	0	0	0	471	704	
15	0	0	0	0	472	705	
0	0	0	0	0	476	704	
1	0	0	0	0	480	704	
2	0	0	0	0	483	704	
3	0	0	0	0	484	704	
4	0	0	0	0	483	705	
5	0	0	0	0	481	705	
6	0	0	0	0	479	704	
7	0	0	0	0	475	704	
8	0	0	0	0	471	704	
9	0	0	0	0	465	704	
10	0	0	0	0	459	704	
11	0	0	0	0	453	704	
12	0	0	0	0	449	704	
13	0	0	0	0	448	704	
14	0	0	0	0	449	704	
15	0	0	0	0	450	705	
0	0	0	0	0	451	704	
1	0	0	0	0	455	705	
2	0	0	0	0	460	704	
3	0	0	0	0	465	705	
4	0	0	0	0	471	704	
5	0	0	0	0	479	705	
6	0	0	0	0	489	704	
7	0	0	0	0	502	704	
8	0	0	0	0	514	704	
9	0	0	0	0	528	704	
10	0	0	0	0	547	704	
11	0	0	0	0	571	704	
12	0	0	0	0	599	704	
13	0	0	0	0	632	704	
14	0	0	0	0	666	704	
15	0	0	0	0	703	704	
0	0	0	0	0	736	704	
1	0	0	0	0	768	704	
2	0	0	0	0	798	704	
3	0	0	0	0	827	704	
4	0	0	0	0	854	704	
5	0	0	0	0	880	704	
6	0	0	0	0	902	704	
7	0	0	0	0	917	704	
8	0	0	0	0	926	704	
9	0	0	0	0	929	704	
10	0	0	0	0	929	704	
11	0	0	0	0	924	704	
12	0	0	0	0	913	704	
13	0	0	0	0	896	704	
14	0	0	0	0	869	704	
15	0	0	0	0	835	704	
0	0	0	0	0	793	704	
1	0	0	0	0	745	704	
2	0	0	0	0	697	704	
3	0	0	0	0	654	704	
4	0	0	0	0	615	704	
5	0	0	0	0	579	704	
6	0	0	0	0	546	704	
7	0	0	0	0	517	704	
8	0	0	0	0	493	704	
9	0	0	0	0	471	704	
10	0	0	0	0	451	704	
11	0	0	0	0	435	705	
12	0	0	0	0	421	704	
13	0	0	0	0	408	704	
14	0	0	0	0	395	705	
15	0	0	0	0	380	704	
0	0	0	0	0	367	705	
1	0	0	0	0	358	704	
2	0	0	0	0	352	704	
3	0	0	0	0	352	704	
4	0	0	0	0	353	704	
5	0	0	0	0	356	704	
6	0	0	0	0	361	704	
7	0	0	0	0	368	704	
8	0	0	0	0	376	704	
9	0	0	0	0	384	704	
10	0	0	0	0	394	705	
11	0	0	0	0	400	704	
12	0	0	0	0	404	704	
13	0	0	0	0	408	704	
14	0	0	0	0	409	704	
15	0	0	0	0	412	704	
0	0	0	0	0	420	704	
1	0	0	0	0	427	704	
2	0	0	0	0	432	704	
3	0	0	0	0	438	704	
4	0	0	0	0	444	704	
5	0	0	0	0	451	704	
6	0	0	0	0	458	704	
7	0	0	0	0	463	704	
8	0	0	0	0	465	704	
9	0	0	0	0	466	704	
10	0	0	0	0	468	704	
11	0	0	0	0	470	704	
12	0	0	0	0	472	704	
13	0	0	0	0	472	704	
14	0	0	0	0	473	704	
15	0	0	0	0	474	704	
0	0	0	0	0	476	704	
1	0	0	0	0	480	704	
2	0	0	0	0	483	704	
3	0	0	0	0	487	704	
4	0	0	0	0	490	704	
5	0	0	0	0	495	704	
6	0	0	0	0	502	704	
7	0	0	0	0	507	704	
8	0	0	0	0	510	704	
9	0	0	0	0	512	704	
10	0	0	0	0	511	704	
11	0	0	0	0	509	704	
12	0	0	0	0	510	704	
13	0	0	0	0	511	704	
14	0	0	0	0	510	704	
15	0	0	0	0	509	704	
0	0	0	0	0	508	704	
1	0	0	0	0	506	704	
2	0	0	0	0	507	704	
3	0	0	0	0	506	704	
4	0	0	0	0	509	704	
5	0	0	0	0	513	704	
6	0	0	0	0	517	704	
7	0	0	0	0	520	704	
8	0	0	0	0	523	704	
9	0	0	0	0	526	704	
10	0	0	0	0	528	704	
11	0	0	0	0	527	704	
12	0	0	0	0	526	704	
13	0	0	0	0	521	704	
14	0	0	0	0	514	704	
15	0	0	0	0	511	704	
0	0	0	0	0	507	704	
1	0	0	0	0	505	704	
2	0	0	0	0	504	704	
3	0	0	0	0	502	704	
4	0	0	0	0	502	704	
5	0	0	0	0	504	704	
6	0	0	0	0	506	704	
7	0	0	0	0	509	704	
8	0	0	0	0	510	704	
9	0	0	0	0	509	704	
10	0	0	0	0	507	704	
11	0	0	0	0	507	704	
12	0	0	0	0	507	704	
13	0	0	0	0	505	704	
14	0	0	0	0	504	704	
15	0	0	0	0	502	704	
0	0	0	0	0	500	704	
1	0	0	0	0	501	704	
2	0	0	0	0	502	704	
3	0	0	0	0	503	704	
4	0	0	0	0	503	704	
5	0	0	0	0	504	704	
6	0	0	0	0	504	704	
7	0	0	0	0	504	704	
8	0	0	0	0	504	704	
9	0	0	0	0	504	704	
10	0	0	0	0	504	704	
11	0	0	0	0	504	704	
12	0	0	0	0	504	704	
13	0	0	0	0	505	704	
14	0	0	0	0	507	704	
15	0	0	0	0	508	704	
0	0	0	0	0	508	704	
1	0	0	0	0	510	704	
2	0	0	0	0	512	704	
3	0	0	0	0	515	704	
4	0	0	0	0	519	705	
5	0	0	0	0	521	704	
6	0	0	0	0	522	704	
7	0	0	0	0	523	704	
8	0	0	0	0	524	704	
9	0	0	0	0	525	704	
10	0	0	0	0	525	704	
11	0	0	0	0	526	704	
12	0	0	0	0	524	704	
13	0	0	0	0	524	704	
14	0	0	0	0	525	704	
15	0	0	0	0	526	704	
0	0	0	0	0	526	704	
1	0	0	0	0	527	704	
2	0	0	0	0	528	704	
3	0	0	0	0	526	704	
4	0	0	0	0	526	704	
5	0	0	0	0	525	704	
6	0	0	0	0	525	704	
7	0	0	0	0	525	704	
8	0	0	0	0	527	705	
9	0	0	0	0	530	704	
10	0	0	0	0	533	704	
11	0	0	0	0	535	704	
12	0	0	0	0	537	704	
13	0	0	0	0	538	704	
14	0	0	0	0	538	704	
15	0	0	0	0	538	704	
0	0	0	0	0	539	704	
1	0	0	0	0	537	704	
2	0	0	0	0	536	704	
3	0	0	0	0	534	704	
4	0	0	0	0	532	705	
5	0	0	0	0	531	704	
6	0	0	0	0	530	704	
7	0	0	0	0	529	705	
8	0	0	0	0	528	704	
9	0	0	0	0	530	704	
10	0	0	0	0	532	704	
11	0	0	0	0	533	704	
12	0	0	0	0	534	705	
13	0	0	0	0	533	704	
14	0	0	0	0	534	704	
15	0	0	0	0	534	705	
0	0	0	0	0	535	704	
1	0	0	0	0	535	705	
2	0	0	0	0	536	704	
3	0	0	0	0	537	705	
4	0	0	0	0	537	704	
5	0	0	0	0	539	704	
6	0	0	0	0	540	705	
7	0	0	0	0	539	705	
8	0	0	0	0	540	705	
9	0	0	0	0	543	704	
10	0	0	0	0	546	704	
11	0	0	0	0	548	705	
12	0	0	0	0	551	705	
13	0	0	0	0	550	705	
14	0	0	0	0	547	705	
15	0	0	0	0	546	704	
0	0	0	0	0	544	705	
1	0	0	0	0	542	705	
2	0	0	0	0	537	705	
3	0	0	0	0	534	705	
4	0	0	0	0	531	705	
5	0	0	0	0	530	705	
6	0	0	0	0	531	705	
7	0	0	0	0	533	705	
8	0	0	0	0	535	705	
9	0	0	0	0	537	705	
10	0	0	0	0	539	705	
11	0	0	0	0	539	705	
12	0	0	0	0	540	705	
13	0	0	0	0	539	705	
14	0	0	0	0	540	705	
15	0	0	0	0	539	705	
0	0	0	0	0	538	705	
1	0	0	0	0	536	705	
2	0	0	0	0	533	705	
3	0	0	0	0	529	705	
4	0	0	0	0	527	705	
5	0	0	0	0	524	705	
6	0	0	0	0	523	705	
7	0	0	0	0	523	705	
8	0	0	0	0	522	705	
9	0	0	0	0	523	705	
10	0	0	0	0	525	705	
11	0	0	0	0	527	705	
12	0	0	0	0	529	705	
13	0	0	0	0	530	705	
14	0	0	0	0	530	705	
15	0	0	0	0	529	705	
0	0	0	0	0	528	705	
1	0	0	0	0	528	705	
2	0	0	0	0	526	705	
3	0	0	0	0	525	705	
4	0	0	0	0	523	705	
5	0	0	0	0	523	705	
6	0	0	0	0	523	705	
7	0	0	0	0	523	705	
8	0	0	0	0	523	705	
9	0	0	0	0	523	705	
10	0	0	0	0	523	705	
11	0	0	0	0	523	705	
12	0	0	0	0	524	705	
13	0	0	0	0	527	706	
14	0	0	0	0	528	705	
15	0	0	0	0	531	705	
0	0	0	0	0	534	705	
1	0	0	0	0	537	705	
2	0	0	0	0	539	705	
3	0	0	0	0	540	705	
4	0	0	0	0	540	706	
5	0	0	0	0	538	705	
6	0	0	0	0	531	705	
7	0	0	0	0	526	706	
8	0	0	0	0	523	705	
9	0	0	0	0	521	705	
10	0	0	0	0	520	705	
11	0	0	0	0	520	705	
12	0	0	0	0	519	706	
13	0	0	0	0	519	705	
14	0	0	0	0	519	706	
15	0	0	0	0	519	706	
0	0	0	0	0	519	706	
1	0	0	0	0	518	706	
2	0	0	0	0	518	706	
3	0	0	0	0	515	706	
4	0	0	0	0	513	706	
5	0	0	0	0	511	706	
6	0	0	0	0	508	706	
7	0	0	0	0	507	706	
8	0	0	0	0	507	706	
9	0	0	0	0	508	706	
10	0	0	0	0	507	706	
11	0	0	0	0	504	706	
12	0	0	0	0	504	706	
13	0	0	0	0	505	706	
14	0	0	0	0	505	706	
15	0	0	0	0	504	706	
0	0	0	0	0	503	706	
1	0	0	0	0	502	706	
2	0	0	0	0	502	707	
3	0	0	0	0	500	706	
4	0	0	0	0	498	706	
5	0	0	0	0	495	706	
6	0	0	0	0	491	706	
7	0	0	0	0	487	707	
8	0	0	0	0	485	706	
9	0	0	0	0	484	706	
10	0	0	0	0	485	707	
11	0	0	0	0	486	707	
12	0	0	0	0	487	706	
13	0	0	0	0	487	706	
14	0	0	0	0	488	706	
15	0	0	0	0	489	707	
0	0	0	0	0	488	706	
1	0	0	0	0	488	707	
2	0	0	0	0	489	707	
3	0	0	0	0	490	706	
4	0	0	0	0	488	707	
5	0	0	0	0	486	707	
6	0	0	0	0	482	707	
7	0	0	0	0	478	707	
8	0	0	0	0	475	707	
9	0	0	0	0	473	707	
10	0	0	0	0	471	707	
11	0	0	0	0	469	707	
12	0	0	0	0	468	707	
13	0	0	0	0	468	707	
14	0	0	0	0	470	707	
15	0	0	0	0	473	707	
0	0	0	0	0	475	707	
1	0	0	0	0	475	707	
2	0	0	0	0	474	707	
3	0	0	0	0	473	707	
4	0	0	0	0	471	707	
5	0	0	0	0	468	707	
6	0	0	0	0	466	707	
7	0	0	0	0	464	707	
8	0	0	0	0	463	707	
9	0	0	0	0	460	707	
10	0	0	0	0	460	707	
11	0	0	0	0	460	707	
12	0	0	0	0	460	707	
13	0	0	0	0	462	707	
14	0	0	0	0	465	707	
15	0	0	0	0	468	707	
0	0	0	0	0	471	707	
1	0	0	0	0	471	707	
2	0	0	0	0	470	707	
3	0	0	0	0	470	707	
4	0	0	0	0	468	707	
5	0	0	0	0	466	707	
6	0	0	0	0	463	707	
7	0	0	0	0	460	707	
8	0	0	0	0	457	707	
9	0	0	0	0	454	707	
10	0	0	0	0	451	707	
11	0	0	0	0	451	707	
12	0	0	0	0	449	707	
13	0	0	0	0	448	707	
14	0	0	0	0	447	707	
15	0	0	0	0	447	707	
0	0	0	0	0	448	707	
1	0	0	0	0	452	708	
2	0	0	0	0	455	707	
3	0	0	0	0	457	708	
4	0	0	0	0	457	708	
5	0	0	0	0	457	707	
6	0	0	0	0	460	708	
7	0	0	0	0	462	708	
8	0	0	0	0	462	708	
9	0	0	0	0	460	708	
10	0	0	0	0	459	708	
11	0	0	0	0	457	708	
12	0	0	0	0	455	708	
13	0	0	0	0	456	708	
14	0	0	0	0	457	708	
15	0	0	0	0	460	708	
0	0	0	0	0	464	708	
1	0	0	0	0	468	708	
2	0	0	0	0	471	708	
3	0	0	0	0	473	708	
4	0	0	0	0	472	708	
5	0	0	0	0	473	708	
6	0	0	0	0	474	708	
7	0	0	0	0	472	708	
8	0	0	0	0	471	708	
9	0	0	0	0	468	708	
10	0	0	0	0	467	709	
11	0	0	0	0	469	708	
12	0	0	0	0	470	708	
13	0	0	0	0	470	708	
14	0	0	0	0	472	708	
15	0	0	0	0	471	708	
0	0	0	0	0	471	708	
1	0	0	0	0	470	708	
2	0	0	0	0	471	708	
3	0	0	0	0	471	708	
4	0	0	0	0	471	708	
5	0	0	0	0	471	708	
6	0	0	0	0	471	708	
7	0	0	0	0	472	708	
8	0	0	0	0	470	709	
9	0	0	0	0	470	709	
10	0	0	0	0	469	708	
11	0	0	0	0	469	709	
12	0	0	0	0	469	709	
13	0	0	0	0	469	708	
14	0	0	0	0	470	709	
15	0	0	0	0	469	708	
0	0	0	0	0	468	709	
1	0	0	0	0	468	709	
2	0	0	0	0	470	708	
3	0	0	0	0	473	709	
4	0	0	0	0	474	709	
5	0	0	0	0	474	709	
6	0	0	0	0	473	709	
7	0	0	0	0	471	709	
8	0	0	0	0	468	710	
9	0	0	0	0	465	709	
10	0	0	0	0	462	709	
11	0	0	0	0	460	709	
12	0	0	0	0	459	709	
13	0	0	0	0	458	710	
14	0	0	0	0	459	709	
15	0	0	0	0	460	709	
0	0	0	0	0	459	709	
1	0	0	0	0	460	710	
2	0	0	0	0	460	710	
3	0	0	0	0	461	710	
4	0	0	0	0	461	710	
5	0	0	0	0	461	710	
6	0	0	0	0	460	709	
7	0	0	0	0	459	710	
8	0	0	0	0	456	709	
9	0	0	0	0	453	710	
10	0	0	0	0	451	710	
11	0	0	0	0	448	710	
12	0	0	0	0	447	710	
13	0	0	0	0	446	710	
14	0	0	0	0	446	710	
15	0	0	0	0	447	710	
0	0	0	0	0	447	710	
1	0	0	0	0	447	710	
2	0	0	0	0	447	710	
3	0	0	0	0	450	710	
4	0	0	0	0	454	710	
5	0	0	0	0	454	710	
6	0	0	0	0	453	711	
7	0	0	0	0	450	710	
8	0	0	0	0	449	710	
9	0	0	0	0	449	710	
10	0	0	0	0	449	710	
11	0	0	0	0	449	711	
12	0	0	0	0	448	711	
13	0	0	0	0	448	710	
14	0	0	0	0	449	711	
15	0	0	0	0	452	710	
0	0	0	0	0	457	711	
1	0	0	0	0	463	710	
2	0	0	0	0	472	710	
3	0	0	0	0	483	710	
4	0	0	0	0	489	710	
5	0	0	0	0	491	711	
6	0	0	0	0	484	711	
7	0	0	0	0	476	711	
8	0	0	0	0	465	711	
9	0	0	0	0	456	711	
10	0	0	0	0	451	711	
11	0	0	0	0	446	711	
12	0	0	0	0	441	711	
13	0	0	0	0	438	711	
14	0	0	0	0	438	711	
15	0	0	0	0	438	711	
0	0	0	0	0	439	711	
1	0	0	0	0	440	711	
2	0	0	0	0	441	711	
3	0	0	0	0	443	711	
4	0	0	0	0	448	711	
5	0	0	0	0	454	711	
6	0	0	0	0	459	711	
7	0	0	0	0	462	711	
8	0	0	0	0	466	711	
9	0	0	0	0	472	711	
10	0	0	0	0	475	711	
11	0	0	0	0	476	711	
12	0	0	0	0	476	711	
13	0	0	0	0	476	711	
14	0	0	0	0	478	711	
15	0	0	0	0	481	711	
0	0	0	0	0	483	711	
1	0	0	0	0	487	711	
2	0	0	0	0	489	711	
3	0	0	0	0	491	711	
4	0	0	0	0	492	711	
5	0	0	0	0	494	711	
6	0	0	0	0	496	711	
7	0	0	0	0	495	711	
8	0	0	0	0	493	711	
9	0	0	0	0	492	711	
10	0	0	0	0	492	711	
11	0	0	0	0	494	711	
12	0	0	0	0	495	711	
13	0	0	0	0	496	711	
14	0	0	0	0	498	711	
15	0	0	0	0	500	711	
0	0	0	0	0	502	711	
1	0	0	0	0	505	711	
2	0	0	0	0	509	712	
3	0	0	0	0	511	711	
4	0	0	0	0	517	712	
5	0	0	0	0	523	712	
6	0	0	0	0	530	711	
7	0	0	0	0	535	712	
8	0	0	0	0	538	711	
9	0	0	0	0	539	712	
10	0	0	0	0	539	711	
11	0	0	0	0	538	712	
12	0	0	0	0	537	712	
13	0	0	0	0	535	711	
14	0	0	0	0	531	711	
15	0	0	0	0	528	712	
0	0	0	0	0	527	711	
1	0	0	0	0	527	712	
2	0	0	0	0	527	711	
3	0	0	0	0	528	712	
4	0	0	0	0	527	712	
5	0	0	0	0	527	712	
6	0	0	0	0	526	712	
7	0	0	0	0	525	712	
8	0	0	0	0	526	711	
9	0	0	0	0	524	712	
10	0	0	0	0	521	711	
11	0	0	0	0	518	712	
12	0	0	0	0	514	712	
13	0	0	0	0	511	712	
14	0	0	0	0	509	712	
15	0	0	0	0	507	711	
0	0	0	0	0	506	712	
1	0	0	0	0	506	712	
2	0	0	0	0	508	712	
3	0	0	0	0	510	712	
4	0	0	0	0	510	712	
5	0	0	0	0	506	712	
6	0	0	0	0	502	712	
7	0	0	0	0	498	712	
8	0	0	0	0	492	712	
9	0	0	0	0	484	712	
10	0	0	0	0	476	713	
11	0	0	0	0	465	712	
12	0	0	0	0	456	712	
13	0	0	0	0	451	712	
14	0	0	0	0	447	712	
15	0	0	0	0	441	712	
0	0	0	0	0	437	712	
1	0	0	0	0	433	712	
2	0	0	0	0	432	712	
3	0	0	0	0	431	712	
4	0	0	0	0	429	713	
5	0	0	0	0	427	712	
6	0	0	0	0	426	712	
7	0	0	0	0	427	712	
8	0	0	0	0	427	712	
9	0	0	0	0	426	713	
10	0	0	0	0	426	712	
11	0	0	0	0	426	712	
12	0	0	0	0	427	712	
13	0	0	0	0	429	712	
14	0	0	0	0	429	713	
15	0	0	0	0	426	712	
0	0	0	0	0	422	712	
1	0	0	0	0	419	712	
2	0	0	0	0	419	712	
3	0	0	0	0	419	713	
4	0	0	0	0	419	712	
5	0	0	0	0	420	712	
6	0	0	0	0	422	712	
7	0	0	0	0	424	712	
8	0	0	0	0	425	713	
9	0	0	0	0	430	712	
10	0	0	0	0	432	712	
11	0	0	0	0	434	713	
12	0	0	0	0	435	712	
13	0	0	0	0	436	713	
14	0	0	0	0	435	712	
15	0	0	0	0	432	712	
0	0	0	0	0	427	713	
1	0	0	0	0	419	713	
2	0	0	0	0	415	713	
3	0	0	0	0	415	713	
4	0	0	0	0	417	712	
5	0	0	0	0	419	713	
6	0	0	0	0	422	712	
7	0	0	0	0	422	713	
8	0	0	0	0	423	713	
9	0	0	0	0	423	712	
10	0	0	0	0	426	713	
11	0	0	0	0	427	712	
12	0	0	0	0	427	713	
13	0	0	0	0	427	712	
14	0	0	0	0	428	713	
15	0	0	0	0	429	713	
0	0	0	0	0	428	713	
1	0	0	0	0	427	713	
2	0	0	0	0	424	712	
3	0	0	0	0	422	713	
4	0	0	0	0	419	712	
5	0	0	0	0	417	712	
6	0	0	0	0	415	713	
7	0	0	0	0	412	713	
8	0	0	0	0	409	713	
9	0	0	0	0	405	713	
10	0	0	0	0	400	713	
11	0	0	0	0	396	713	
12	0	0	0	0	393	713	
13	0	0	0	0	391	713	
14	0	0	0	0	392	713	
15	0	0	0	0	396	713	
0	0	0	0	0	399	712	
1	0	0	0	0	400	713	
2	0	0	0	0	404	713	
3	0	0	0	0	406	713	
4	0	0	0	0	411	713	
5	0	0	0	0	417	713	
6	0	0	0	0	425	713	
7	0	0	0	0	435	713	
8	0	0	0	0	447	713	
9	0	0	0	0	462	713	
10	0	0	0	0	482	712	
11	0	0	0	0	506	713	
12	0	0	0	0	534	713	
13	0	0	0	0	564	713	
14	0	0	0	0	595	713	
15	0	0	0	0	627	713	
0	0	0	0	0	659	713	
1	0	0	0	0	686	713	
2	0	0	0	0	709	712	
3	0	0	0	0	729	713	
4	0	0	0	0	753	713	
5	0	0	0	0	777	713	
6	0	0	0	0	802	713	
7	0	0	0	0	822	713	
8	0	0	0	0	836	713	
9	0	0	0	0	846	713	
10	0	0	0	0	849	713	
11	0	0	0	0	847	713	
12	0	0	0	0	839	712	
13	0	0	0	0	820	712	
14	0	0	0	0	791	713	
15	0	0	0	0	755	713	
0	0	0	0	0	714	713	
1	0	0	0	0	670	713	
2	0	0	0	0	624	712	
3	0	0	0	0	580	713	
4	0	0	0	0	538	713	
5	0	0	0	0	501	713	
6	0	0	0	0	468	713	
7	0	0	0	0	440	712	
8	0	0	0	0	416	713	
9	0	0	0	0	398	713	
10	0	0	0	0	384	713	
11	0	0	0	0	375	712	
12	0	0	0	0	366	712	
13	0	0	0	0	354	713	
14	0	0	0	0	339	713	
15	0	0	0	0	323	712	
0	0	0	0	0	310	712	
1	0	0	0	0	301	713	
2	0	0	0	0	295	713	
3	0	0	0	0	289	713	
4	0	0	0	0	286	713	
5	0	0	0	0	286	713	
6	0	0	0	0	289	713	
7	0	0	0	0	294	713	
8	0	0	0	0	301	712	
9	0	0	0	0	309	713	
10	0	0	0	0	316	713	
11	0	0	0	0	323	712	
12	0	0	0	0	332	713	
13	0	0	0	0	341	713	
14	0	0	0	0	348	713	
15	0	0	0	0	355	713	
0	0	0	0	0	360	713	
1	0	0	0	0	366	713	
2	0	0	0	0	371	713	
3	0	0	0	0	375	713	
4	0	0	0	0	380	713	
5	0	0	0	0	382	713	
6	0	0	0	0	384	712	
7	0	0	0	0	387	713	
8	0	0	0	0	389	713	
9	0	0	0	0	393	713	
10	0	0	0	0	396	712	
11	0	0	0	0	398	713	
12	0	0	0	0	400	712	
13	0	0	0	0	403	712	
14	0	0	0	0	406	713	
15	0	0	0	0	406	712	
0	0	0	0	0	406	713	
1	0	0	0	0	407	713	
2	0	0	0	0	409	713	
3	0	0	0	0	411	712	
4	0	0	0	0	412	712	
5	0	0	0	0	414	713	
6	0	0	0	0	414	712	
7	0	0	0	0	414	712	
8	0	0	0	0	412	712	
9	0	0	0	0	413	712	
10	0	0	0	0	413	713	
11	0	0	0	0	414	712	
12	0	0	0	0	417	712	
13	0	0	0	0	418	712	
14	0	0	0	0	419	712	
15	0	0	0	0	421	712	
0	0	0	0	0	423	712	
1	0	0	0	0	427	712	
2	0	0	0	0	429	712	
3	0	0	0	0	431	712	
4	0	0	0	0	434	713	
5	0	0	0	0	436	712	
6	0	0	0	0	439	712	
7	0	0	0	0	441	712	
8	0	0	0	0	442	712	
9	0	0	0	0	441	713	
10	0	0	0	0	440	712	
11	0	0	0	0	440	712	
12	0	0	0	0	442	712	
13	0	0	0	0	446	712	
14	0	0	0	0	446	712	
15	0	0	0	0	446	712	
0	0	0	0	0	443	712	
1	0	0	0	0	438	712	
2	0	0	0	0	432	712	
3	0	0	0	0	427	712	
4	0	0	0	0	425	712	
5	0	0	0	0	426	712	
6	0	0	0	0	430	712	
7	0	0	0	0	436	712	
8	0	0	0	0	442	712	
9	0	0	0	0	449	712	
10	0	0	0	0	458	712	
11	0	0	0	0	465	712	
12	0	0	0	0	469	712	
13	0	0	0	0	471	712	
14	0	0	0	0	473	712	
15	0	0	0	0	477	712	
0	0	0	0	0	476	712	
1	0	0	0	0	473	712	
2	0	0	0	0	471	712	
3	0	0	0	0	471	712	
4	0	0	0	0	472	712	
5	0	0	0	0	475	711	
6	0	0	0	0	477	711	
7	0	0	0	0	478	712	
8	0	0	0	0	479	712	
9	0	0	0	0	480	711	
10	0	0	0	0	480	712	
11	0	0	0	0	480	711	
12	0	0	0	0	477	712	
13	0	0	0	0	474	711	
14	0	0	0	0	471	711	
15	0	0	0	0	467	711	
0	0	0	0	0	467	711	
1	0	0	0	0	467	711	
2	0	0	0	0	467	711	
3	0	0	0	0	467	711	
4	0	0	0	0	466	711	
5	0	0	0	0	465	711	
6	0	0	0	0	466	711	
7	0	0	0	0	466	711	
8	0	0	0	0	464	711	
9	0	0	0	0	464	711	
10	0	0	0	0	463	711	
11	0	0	0	0	464	711	
12	0	0	0	0	464	711	
13	0	0	0	0	463	711	
14	0	0	0	0	462	711	
15	0	0	0	0	463	711	
0	0	0	0	0	464	711	
1	0	0	0	0	465	711	
2	0	0	0	0	467	711	
3	0	0	0	0	467	711	
4	0	0	0	0	464	711	
5	0	0	0	0	463	711	
6	0	0	0	0	462	711	
7	0	0	0	0	463	711	
8	0	0	0	0	463	711	
9	0	0	0	0	464	711	
10	0	0	0	0	465	711	
11	0	0	0	0	466	711	
12	0	0	0	0	468	711	
13	0	0	0	0	470	711	
14	0	0	0	0	470	711	
15	0	0	0	0	469	711	
0	0	0	0	0	467	711	
1	0	0	0	0	465	711	
2	0	0	0	0	464	711	
3	0	0	0	0	465	711	
4	0	0	0	0	467	711	
5	0	0	0	0	471	711	
6	0	0	0	0	476	711	
7	0	0	0	0	480	711	
8	0	0	0	0	484	711	
9	0	0	0	0	487	711	
10	0	0	0	0	491	711	
11	0	0	0	0	496	711	
12	0	0	0	0	499	711	
13	0	0	0	0	500	711	
14	0	0	0	0	499	711	
15	0	0	0	0	497	711	
0	0	0	0	0	494	711	
1	0	0	0	0	492	711	
2	0	0	0	0	493	710	
3	0	0	0	0	492	711	
4	0	0	0	0	491	711	
5	0	0	0	0	490	711	
6	0	0	0	0	491	711	
7	0	0	0	0	488	711	
8	0	0	0	0	487	711	
9	0	0	0	0	487	710	
10	0	0	0	0	485	711	
11	0	0	0	0	482	711	
12	0	0	0	0	483	711	
13	0	0	0	0	486	711	
14	0	0	0	0	489	711	
15	0	0	0	0	493	710	
0	0	0	0	0	495	711	
1	0	0	0	0	498	710	
2	0	0	0	0	501	711	
3	0	0	0	0	504	710	
4	0	0	0	0	511	710	
5	0	0	0	0	513	710	
6	0	0	0	0	513	710	
7	0	0	0	0	516	711	
8	0	0	0	0	519	710	
9	0	0	0	0	520	711	
10	0	0	0	0	521	710	
11	0	0	0	0	519	710	
12	0	0	0	0	519	710	
13	0	0	0	0	521	711	
14	0	0	0	0	524	710	
15	0	0	0	0	526	710	
0	0	0	0	0	526	710	
1	0	0	0	0	524	710	
2	0	0	0	0	521	710	
3	0	0	0	0	519	710	
4	0	0	0	0	519	710	
5	0	0	0	0	519	710	
6	0	0	0	0	519	710	
7	0	0	0	0	519	710	
8	0	0	0	0	519	710	
9	0	0	0	0	520	710	
10	0	0	0	0	519	710	
11	0	0	0	0	518	710	
12	0	0	0	0	515	710	
13	0	0	0	0	505	710	
14	0	0	0	0	495	710	
15	0	0	0	0	488	710	
0	0	0	0	0	484	710	
1	0	0	0	0	483	710	
2	0	0	0	0	487	710	
3	0	0	0	0	488	710	
4	0	0	0	0	489	710	
5	0	0	0	0	492	710	
6	0	0	0	0	493	710	
7	0	0	0	0	492	710	
8	0	0	0	0	491	710	
9	0	0	0	0	488	710	
10	0	0	0	0	484	710	
11	0	0	0	0	482	710	
12	0	0	0	0	480	710	
13	0	0	0	0	480	710	
14	0	0	0	0	481	709	
15	0	0	0	0	483	710	
0	0	0	0	0	484	709	
1	0	0	0	0	485	710	
2	0	0	0	0	486	709	
3	0	0	0	0	485	709	
4	0	0	0	0	484	710	
5	0	0	0	0	483	709	
6	0	0	0	0	483	709	
7	0	0	0	0	482	710	
8	0	0	0	0	479	709	
9	0	0	0	0	475	710	
10	0	0	0	0	471	709	
11	0	0	0	0	468	710	
12	0	0	0	0	464	709	
13	0	0	0	0	463	709	
14	0	0	0	0	464	709	
15	0	0	0	0	466	709	
0	0	0	0	0	467	709	
1	0	0	0	0	466	709	
2	0	0	0	0	463	709	
3	0	0	0	0	461	709	
4	0	0	0	0	460	709	
5	0	0	0	0	459	709	
6	0	0	0	0	458	709	
7	0	0	0	0	459	709	
8	0	0	0	0	457	709	
9	0	0	0	0	455	709	
10	0	0	0	0	454	709	
11	0	0	0	0	452	709	
12	0	0	0	0	448	709	
13	0	0	0	0	444	709	
14	0	0	0	0	441	708	
15	0	0	0	0	440	709	
0	0	0	0	0	440	708	
1	0	0	0	0	444	709	
2	0	0	0	0	447	709	
3	0	0	0	0	451	708	
4	0	0	0	0	455	708	
5	0	0	0	0	458	709	
6	0	0	0	0	461	708	
7	0	0	0	0	464	708	
8	0	0	0	0	462	708	
9	0	0	0	0	460	708	
10	0	0	0	0	458	708	
11	0	0	0	0	457	708	
12	0	0	0	0	459	708	
13	0	0	0	0	457	708	
14	0	0	0	0	454	708	
15	0	0	0	0	451	708	
0	0	0	0	0	448	708	
1	0	0	0	0	443	708	
2	0	0	0	0	440	708	
3	0	0	0	0	440	708	
4	0	0	0	0	439	708	
5	0	0	0	0	441	708	
6	0	0	0	0	445	708	
7	0	0	0	0	447	708	
8	0	0	0	0	446	708	
9	0	0	0	0	445	708	
10	0	0	0	0	444	708	
11	0	0	0	0	444	708	
12	0	0	0	0	443	708	
13	0	0	0	0	442	708	
14	0	0	0	0	440	708	
15	0	0	0	0	438	707	
0	0	0	0	0	438	708	
1	0	0	0	0	438	708	
2	0	0	0	0	439	708	
3	0	0	0	0	439	707	
4	0	0	0	0	440	707	
5	0	0	0	0	439	708	
6	0	0	0	0	439	707	
7	0	0	0	0	439	707	
8	0	0	0	0	439	707	
9	0	0	0	0	439	707	
10	0	0	0	0	440	708	
11	0	0	0	0	442	707	
12	0	0	0	0	444	707	
13	0	0	0	0	446	707	
14	0	0	0	0	448	707	
15	0	0	0	0	448	707	
0	0	0	0	0	447	707	
1	0	0	0	0	447	707	
2	0	0	0	0	446	707	
3	0	0	0	0	447	707	
4	0	0	0	0	448	707	
5	0	0	0	0	449	707	
6	0	0	0	0	451	707	
7	0	0	0	0	453	707	
8	0	0	0	0	456	707	
9	0	0	0	0	458	707	
10	0	0	0	0	458	707	
11	0	0	0	0	458	707	
12	0	0	0	0	456	707	
13	0	0	0	0	456	707	
14	0	0	0	0	455	707	
15	0	0	0	0	453	707	
0	0	0	0	0	451	707	
1	0	0	0	0	448	707	
2	0	0	0	0	448	707	
3	0	0	0	0	448	707	
4	0	0	0	0	451	707	
5	0	0	0	0	454	707	
6	0	0	0	0	456	706	
7	0	0	0	0	460	706	
8	0	0	0	0	464	707	
9	0	0	0	0	465	706	
10	0	0	0	0	466	707	
11	0	0	0	0	466	706	
12	0	0	0	0	465	706	
13	0	0	0	0	465	707	
14	0	0	0	0	466	706	
15	0	0	0	0	465	706	
0	0	0	0	0	464	706	
1	0	0	0	0	463	706	
2	0	0	0	0	464	706	
3	0	0	0	0	463	706	
4	0	0	0	0	463	706	
5	0	0	0	0	462	706	
6	0	0	0	0	461	706	
7	0	0	0	0	462	706	
8	0	0	0	0	463	706	
9	0	0	0	0	467	706	
10	0	0	0	0	468	706	
11	0	0	0	0	468	705	
12	0	0	0	0	467	706	
13	0	0	0	0	466	705	
14	0	0	0	0	463	705	
15	0	0	0	0	460	705	
0	0	0	0	0	456	705	
1	0	0	0	0	454	706	
2	0	0	0	0	452	705	
3	0	0	0	0	451	705	
4	0	0	0	0	451	705	
5	0	0	0	0	452	705	
6	0	0	0	0	454	705	
7	0	0	0	0	455	705	
8	0	0	0	0	455	705	
9	0	0	0	0	456	705	
10	0	0	0	0	458	705	
11	0	0	0	0	460	705	
12	0	0	0	0	460	705	
13	0	0	0	0	460	705	
14	0	0	0	0	460	705	
15	0	0	0	0	461	705	
0	0	0	0	0	460	705	
1	0	0	0	0	457	705	
2	0	0	0	0	453	705	
3	0	0	0	0	449	705	
4	0	0	0	0	448	704	
5	0	0	0	0	448	705	
6	0	0	0	0	449	704	
7	0	0	0	0	452	704	
8	0	0	0	0	457	704	
9	0	0	0	0	463	704	
10	0	0	0	0	469	704	
11	0	0	0	0	473	704	
12	0	0	0	0	474	704	
13	0	0	0	0	473	704	
14	0	0	0	0	470	704	
15	0	0	0	0	465	704	
0	0	0	0	0	462	704	
1	0	0	0	0	457	704	
2	0	0	0	0	453	704	
3	0	0	0	0	449	704	
4	0	0	0	0	445	704	
5	0	0	0	0	444	704	
6	0	0	0	0	441	704	
7	0	0	0	0	440	704	
8	0	0	0	0	440	704	
9	0	0	0	0	442	704	
10	0	0	0	0	444	703	
11	0	0	0	0	445	704	
12	0	0	0	0	448	704	
13	0	0	0	0	448	704	
14	0	0	0	0	448	704	
15	0	0	0	0	448	704	
0	0	0	0	0	448	703	
1	0	0	0	0	446	703	
2	0	0	0	0	443	703	
3	0	0	0	0	441	704	
4	0	0	0	0	440	704	
5	0	0	0	0	440	703	
6	0	0	0	0	442	703	
7	0	0	0	0	445	703	
8	0	0	0	0	446	704	
9	0	0	0	0	448	703	
10	0	0	0	0	452	703	
11	0	0	0	0	455	703	
12	0	0	0	0	459	703	
13	0	0	0	0	460	703	
14	0	0	0	0	460	703	
15	0	0	0	0	459	703	
0	0	0	0	0	459	703	
1	0	0	0	0	459	703	
2	0	0	0	0	459	703	
3	0	0	0	0	457	703	
4	0	0	0	0	454	703	
5	0	0	0	0	451	703	
6	0	0	0	0	448	703	
7	0	0	0	0	446	702	
8	0	0	0	0	445	703	
9	0	0	0	0	444	703	
10	0	0	0	0	443	703	
11	0	0	0	0	446	702	
12	0	0	0	0	449	703	
13	0	0	0	0	452	702	
14	0	0	0	0	454	702	
15	0	0	0	0	454	702	
0	0	0	0	0	454	702	
1	0	0	0	0	453	702	
2	0	0	0	0	453	702	
3	0	0	0	0	453	703	
4	0	0	0	0	452	702	
5	0	0	0	0	451	702	
6	0	0	0	0	449	702	
7	0	0	0	0	448	702	
8	0	0	0	0	449	702	
9	0	0	0	0	450	702	
10	0	0	0	0	453	702	
11	0	0	0	0	456	702	
12	0	0	0	0	460	702	
13	0	0	0	0	467	702	
14	0	0	0	0	475	702	
15	0	0	0	0	483	702	
0	0	0	0	0	491	702	
1	0	0	0	0	494	702	
2	0	0	0	0	495	702	
3	0	0	0	0	494	702	
4	0	0	0	0	492	701	
5	0	0	0	0	488	702	
6	0	0	0	0	486	702	
7	0	0	0	0	485	701	
8	0	0	0	0	485	701	
9	0	0	0	0	487	701	
10	0	0	0	0	488	701	
11	0	0	0	0	487	701	
12	0	0	0	0	487	701	
13	0	0	0	0	489	701	
14	0	0	0	0	487	701	
15	0	0	0	0	485	701	
0	0	0	0	0	485	701	
1	0	0	0	0	485	701	
2	0	0	0	0	487	701	
3	0	0	0	0	488	701	
4	0	0	0	0	489	701	
5	0	0	0	0	489	701	
6	0	0	0	0	490	701	
7	0	0	0	0	492	701	
8	0	0	0	0	494	701	
9	0	0	0	0	498	701	
10	0	0	0	0	502	701	
11	0	0	0	0	507	701	
12	0	0	0	0	509	700	
13	0	0	0	0	512	701	
14	0	0	0	0	514	701	
15	0	0	0	0	515	701	
0	0	0	0	0	513	700	
1	0	0	0	0	511	701	
2	0	0	0	0	510	700	
3	0	0	0	0	508	701	
4	0	0	0	0	506	700	
5	0	0	0	0	502	701	
6	0	0	0	0	499	700	
7	0	0	0	0	495	700	
8	0	0	0	0	493	700	
9	0	0	0	0	493	700	
10	0	0	0	0	493	700	
11	0	0	0	0	492	700	
12	0	0	0	0	492	700	
13	0	0	0	0	495	700	
14	0	0	0	0	496	700	
15	0	0	0	0	498	700	
0	0	0	0	0	499	700	
1	0	0	0	0	499	700	
2	0	0	0	0	499	700	
3	0	0	0	0	496	700	
4	0	0	0	0	492	700	
5	0	0	0	0	488	700	
6	0	0	0	0	481	700	
7	0	0	0	0	472	700	
8	0	0	0	0	464	700	
9	0	0	0	0	456	700	
10	0	0	0	0	452	700	
11	0	0	0	0	449	700	
12	0	0	0	0	447	700	
13	0	0	0	0	444	700	
14	0	0	0	0	444	700	
15	0	0	0	0	446	700	
0	0	0	0	0	448	699	
1	0	0	0	0	448	700	
2	0	0	0	0	446	699	
3	0	0	0	0	446	699	
4	0	0	0	0	448	700	
5	0	0	0	0	447	699	
6	0	0	0	0	444	699	
7	0	0	0	0	441	699	
8	0	0	0	0	440	699	
9	0	0	0	0	442	699	
10	0	0	0	0	444	699	
11	0	0	0	0	444	700	
12	0	0	0	0	445	699	
13	0	0	0	0	444	699	
14	0	0	0	0	446	699	
15	0	0	0	0	448	699	
0	0	0	0	0	450	699	
1	0	0	0	0	451	699	
2	0	0	0	0	449	699	
3	0	0	0	0	446	699	
4	0	0	0	0	439	698	
5	0	0	0	0	433	699	
6	0	0	0	0	428	698	
7	0	0	0	0	426	699	
8	0	0	0	0	425	699	
9	0	0	0	0	425	699	
10	0	0	0	0	424	699	
11	0	0	0	0	425	698	
12	0	0	0	0	427	698	
13	0	0	0	0	431	698	
14	0	0	0	0	435	698	
15	0	0	0	0	440	698	
0	0	0	0	0	446	698	
1	0	0	0	0	451	698	
2	0	0	0	0	455	698	
3	0	0	0	0	457	698	
4	0	0	0	0	459	698	
5	0	0	0	0	460	698	
6	0	0	0	0	460	698	
7	0	0	0	0	459	698	
8	0	0	0	0	454	697	
9	0	0	0	0	449	698	
10	0	0	0	0	444	698	
11	0	0	0	0	440	698	
12	0	0	0	0	438	698	
13	0	0	0	0	438	697	
14	0	0	0	0	439	698	
15	0	0	0	0	439	697	
0	0	0	0	0	440	697	
1	0	0	0	0	445	697	
2	0	0	0	0	448	697	
3	0	0	0	0	448	698	
4	0	0	0	0	446	697	
5	0	0	0	0	444	697	
6	0	0	0	0	441	697	
7	0	0	0	0	438	697	
8	0	0	0	0	435	697	
9	0	0	0	0	430	697	
10	0	0	0	0	422	697	
11	0	0	0	0	416	697	
12	0	0	0	0	411	697	
13	0	0	0	0	405	697	
14	0	0	0	0	400	697	
15	0	0	0	0	399	697	
0	0	0	0	0	399	697	
1	0	0	0	0	400	697	
2	0	0	0	0	403	697	
3	0	0	0	0	407	697	
4	0	0	0	0	413	697	
5	0	0	0	0	421	697	
6	0	0	0	0	429	697	
7	0	0	0	0	439	697	
8	0	0	0	0	449	696	
9	0	0	0	0	460	697	
10	0	0	0	0	473	696	
11	0	0	0	0	490	696	
12	0	0	0	0	512	697	
13	0	0	0	0	538	696	
14	0	0	0	0	567	696	
15	0	0	0	0	597	696	
0	0	0	0	0	630	696	
1	0	0	0	0	663	697	
2	0	0	0	0	692	696	
3	0	0	0	0	718	696	
4	0	0	0	0	743	696	
5	0	0	0	0	766	696	
6	0	0	0	0	792	696	
7	0	0	0	0	817	696	
8	0	0	0	0	839	696	
9	0	0	0	0	854	696	
10	0	0	0	0	863	696	
11	0	0	0	0	867	696	
12	0	0	0	0	865	696	
13	0	0	0	0	856	696	
14	0	0	0	0	839	696	
15	0	0	0	0	815	696	
0	0	0	0	0	783	696	
1	0	0	0	0	746	696	
2	0	0	0	0	709	696	
3	0	0	0	0	672	696	
4	0	0	0	0	635	696	
5	0	0	0	0	598	696	
6	0	0	0	0	563	696	
7	0	0	0	0	531	696	
8	0	0	0	0	507	696	
9	0	0	0	0	488	695	
10	0	0	0	0	471	696	
11	0	0	0	0	454	696	
12	0	0	0	0	437	696	
13	0	0	0	0	423	696	
14	0	0	0	0	412	695	
15	0	0	0	0	402	695	
0	0	0	0	0	392	695	
1	0	0	0	0	379	696	
2	0	0	0	0	366	695	
3	0	0	0	0	355	695	
4	0	0	0	0	347	696	
5	0	0	0	0	340	695	
6	0	0	0	0	337	695	
7	0	0	0	0	335	695	
8	0	0	0	0	335	695	
9	0	0	0	0	336	696	
10	0	0	0	0	339	695	
11	0	0	0	0	341	695	
12	0	0	0	0	344	695	
13	0	0	0	0	348	695	
14	0	0	0	0	355	695	
15	0	0	0	0	361	695	
0	0	0	0	0	368	695	
1	0	0	0	0	377	695	
2	0	0	0	0	385	694	
3	0	0	0	0	394	695	
4	0	0	0	0	404	695	
5	0	0	0	0	414	695	
6	0	0	0	0	420	695	
7	0	0	0	0	424	694	
8	0	0	0	0	426	695	
9	0	0	0	0	429	694	
10	0	0	0	0	432	694	
11	0	0	0	0	433	694	
12	0	0	0	0	432	694	
13	0	0	0	0	431	695	
14	0	0	0	0	431	694	
15	0	0	0	0	435	694	
0	0	0	0	0	440	694	
1	0	0	0	0	444	694	
2	0	0	0	0	446	694	
3	0	0	0	0	449	694	
4	0	0	0	0	453	694	
5	0	0	0	0	457	694	
6	0	0	0	0	459	694	
7	0	0	0	0	459	694	
8	0	0	0	0	459	694	
9	0	0	0	0	460	694	
10	0	0	0	0	461	694	
11	0	0	0	0	462	694	
12	0	0	0	0	461	694	
13	0	0	0	0	459	694	
14	0	0	0	0	457	694	
15	0	0	0	0	457	694	
0	0	0	0	0	458	694	
1	0	0	0	0	459	694	
2	0	0	0	0	462	694	
3	0	0	0	0	464	693	
4	0	0	0	0	467	694	
5	0	0	0	0	470	694	
6	0	0	0	0	474	694	
7	0	0	0	0	475	694	
8	0	0	0	0	476	694	
9	0	0	0	0	477	693	
10	0	0	0	0	476	693	
11	0	0	0	0	476	694	
12	0	0	0	0	476	693	
13	0	0	0	0	476	693	
14	0	0	0	0	477	693	
15	0	0	0	0	480	693	
0	0	0	0	0	484	693	
1	0	0	0	0	490	693	
2	0	0	0	0	493	693	
3	0	0	0	0	494	693	
4	0	0	0	0	496	693	
5	0	0	0	0	498	693	
6	0	0	0	0	501	693	
7	0	0	0	0	502	693	
8	0	0	0	0	501	693	
9	0	0	0	0	500	692	
10	0	0	0	0	497	693	
11	0	0	0	0	494	693	
12	0	0	0	0	492	693	
13	0	0	0	0	490	692	
14	0	0	0	0	489	693	
15	0	0	0	0	492	693	
0	0	0	0	0	495	692	
1	0	0	0	0	497	692	
2	0	0	0	0	499	692	
3	0	0	0	0	504	692	
4	0	0	0	0	507	693	
5	0	0	0	0	508	692	
6	0	0	0	0	508	692	
7	0	0	0	0	510	692	
8	0	0	0	0	512	692	
9	0	0	0	0	512	692	
10	0	0	0	0	514	692	
11	0	0	0	0	515	692	
12	0	0	0	0	514	692	
13	0	0	0	0	514	692	
14	0	0	0	0	513	692	
15	0	0	0	0	512	692	
0	0	0	0	0	508	692	
1	0	0	0	0	507	692	
2	0	0	0	0	507	692	
3	0	0	0	0	504	692	
4	0	0	0	0	501	692	
5	0	0	0	0	501	692	
6	0	0	0	0	503	692	
7	0	0	0	0	506	691	
8	0	0	0	0	508	692	
9	0	0	0	0	507	692	
10	0	0	0	0	505	692	
11	0	0	0	0	504	692	
12	0	0	0	0	504	691	
13	0	0	0	0	507	692	
14	0	0	0	0	510	691	
15	0	0	0	0	514	691	
0	0	0	0	0	516	691	
1	0	0	0	0	518	691	
2	0	0	0	0	521	692	
3	0	0	0	0	526	691	
4	0	0	0	0	529	691	
5	0	0	0	0	529	691	
6	0	0	0	0	530	691	
7	0	0	0	0	531	692	
8	0	0	0	0	530	691	
9	0	0	0	0	529	691	
10	0	0	0	0	529	691	
11	0	0	0	0	530	691	
12	0	0	0	0	528	691	
13	0	0	0	0	526	691	
14	0	0	0	0	524	691	
15	0	0	0	0	522	691	
0	0	0	0	0	519	691	
1	0	0	0	0	517	691	
2	0	0	0	0	517	691	
3	0	0	0	0	519	691	
4	0	0	0	0	524	691	
5	0	0	0	0	528	691	
6	0	0	0	0	533	691	
7	0	0	0	0	536	691	
8	0	0	0	0	540	691	
9	0	0	0	0	540	691	
10	0	0	0	0	540	691	
11	0	0	0	0	539	691	
12	0	0	0	0	535	691	
13	0	0	0	0	531	691	
14	0	0	0	0	527	691	
15	0	0	0	0	529	691	
0	0	0	0	0	530	691	
1	0	0	0	0	532	691	
2	0	0	0	0	538	690	
3	0	0	0	0	544	691	
4	0	0	0	0	548	690	
5	0	0	0	0	552	691	
6	0	0	0	0	555	691	
7	0	0	0	0	553	691	
8	0	0	0	0	550	690	
9	0	0	0	0	545	690	
10	0	0	0	0	542	690	
11	0	0	0	0	540	691	
12	0	0	0	0	538	691	
13	0	0	0	0	537	690	
14	0	0	0	0	536	690	
15	0	0	0	0	539	690	
0	0	0	0	0	540	690	
1	0	0	0	0	540	690	
2	0	0	0	0	542	690	
3	0	0	0	0	542	690	
4	0	0	0	0	543	690	
5	0	0	0	0	544	690	
6	0	0	0	0	546	690	
7	0	0	0	0	548	690	
8	0	0	0	0	551	690	
9	0	0	0	0	557	690	
10	0	0	0	0	563	690	
11	0	0	0	0	568	690	
12	0	0	0	0	573	690	
13	0	0	0	0	578	690	
14	0	0	0	0	580	690	
15	0	0	0	0	579	690	
0	0	0	0	0	576	690	
1	0	0	0	0	572	690	
2	0	0	0	0	564	689	
3	0	0	0	0	558	690	
4	0	0	0	0	551	689	
5	0	0	0	0	548	690	
6	0	0	0	0	546	689	
7	0	0	0	0	545	689	
8	0	0	0	0	546	690	
9	0	0	0	0	547	689	
10	0	0	0	0	547	689	
11	0	0	0	0	549	689	
12	0	0	0	0	551	689	
13	0	0	0	0	551	690	
14	0	0	0	0	551	689	
15	0	0	0	0	551	689	
0	0	0	0	0	551	689	
1	0	0	0	0	551	689	
2	0	0	0	0	550	689	
3	0	0	0	0	548	689	
4	0	0	0	0	547	689	
5	0	0	0	0	545	689	
6	0	0	0	0	544	689	
7	0	0	0	0	545	689	
8	0	0	0	0	544	689	
9	0	0	0	0	545	689	
10	0	0	0	0	544	689	
11	0	0	0	0	543	689	
12	0	0	0	0	543	689	
13	0	0	0	0	541	689	
14	0	0	0	0	539	689	
15	0	0	0	0	536	689	
0	0	0	0	0	536	689	
1	0	0	0	0	535	689	
2	0	0	0	0	533	689	
3	0	0	0	0	532	689	
4	0	0	0	0	533	689	
5	0	0	0	0	532	689	
6	0	0	0	0	532	689	
7	0	0	0	0	533	689	
8	0	0	0	0	535	689	
9	0	0	0	0	537	688	
10	0	0	0	0	539	689	
11	0	0	0	0	540	689	
12	0	0	0	0	540	689	
13	0	0	0	0	539	689	
14	0	0	0	0	538	688	
15	0	0	0	0	537	688	
0	0	0	0	0	533	688	
1	0	0	0	0	530	689	
2	0	0	0	0	528	688	
3	0	0	0	0	525	688	
4	0	0	0	0	519	688	
5	0	0	0	0	511	689	
6	0	0	0	0	504	688	
7	0	0	0	0	501	689	
8	0	0	0	0	500	688	
9	0	0	0	0	498	688	
10	0	0	0	0	496	688	
11	0	0	0	0	496	688	
12	0	0	0	0	497	688	
13	0	0	0	0	500	688	
14	0	0	0	0	500	688	
15	0	0	0	0	499	688	
0	0	0	0	0	498	688	
1	0	0	0	0	496	688	
2	0	0	0	0	493	688	
3	0	0	0	0	488	688	
4	0	0	0	0	483	688	
5	0	0	0	0	478	688	
6	0	0	0	0	476	688	
7	0	0	0	0	476	688	
8	0	0	0	0	476	688	
9	0	0	0	0	478	688	
10	0	0	0	0	477	688	
11	0	0	0	0	475	688	
12	0	0	0	0	471	688	
13	0	0	0	0	471	688	
14	0	0	0	0	475	688	
15	0	0	0	0	479	688	
0	0	0	0	0	480	688	
1	0	0	0	0	479	688	
2	0	0	0	0	477	688	
3	0	0	0	0	476	688	
4	0	0	0	0	474	688	
5	0	0	0	0	473	688	
6	0	0	0	0	473	688	
7	0	0	0	0	473	688	
8	0	0	0	0	473	688	
9	0	0	0	0	472	688	
10	0	0	0	0	474	688	
11	0	0	0	0	474	688	
12	0	0	0	0	474	688	
13	0	0	0	0	473	688	
14	0	0	0	0	472	688	
15	0	0	0	0	472	687	
0	0	0	0	0	471	688	
1	0	0	0	0	469	687	
2	0	0	0	0	468	688	
3	0	0	0	0	467	687	
4	0	0	0	0	467	688	
5	0	0	0	0	468	688	
6	0	0	0	0	470	687	
7	0	0	0	0	472	687	
8	0	0	0	0	475	688	
9	0	0	0	0	475	687	
10	0	0	0	0	473	688	
11	0	0	0	0	474	687	
12	0	0	0	0	475	688	
13	0	0	0	0	475	687	
14	0	0	0	0	478	688	
15	0	0	0	0	480	687	
0	0	0	0	0	483	687	
1	0	0	0	0	484	687	
2	0	0	0	0	484	687	
3	0	0	0	0	482	687	
4	0	0	0	0	482	687	
5	0	0	0	0	482	687	
6	0	0	0	0	482	687	
7	0	0	0	0	482	687	
8	0	0	0	0	482	687	
9	0	0	0	0	484	687	
10	0	0	0	0	483	687	
11	0	0	0	0	483	687	
12	0	0	0	0	487	687	
13	0	0	0	0	489	687	
14	0	0	0	0	492	687	
15	0	0	0	0	494	687	
0	0	0	0	0	495	687	
1	0	0	0	0	496	687	
2	0	0	0	0	499	687	
3	0	0	0	0	501	687	
4	0	0	0	0	504	687	
5	0	0	0	0	505	687	
6	0	0	0	0	505	687	
7	0	0	0	0	504	687	
8	0	0	0	0	504	687	
9	0	0	0	0	502	686	
10	0	0	0	0	500	687	
11	0	0	0	0	499	687	
12	0	0	0	0	499	687	
13	0	0	0	0	499	687	
14	0	0	0	0	501	686	
15	0	0	0	0	507	686	
0	0	0	0	0	511	686	
1	0	0	0	0	518	686	
2	0	0	0	0	522	686	
3	0	0	0	0	524	686	
4	0	0	0	0	524	686	
5	0	0	0	0	524	686	
6	0	0	0	0	520	687	
7	0	0	0	0	515	686	
8	0	0	0	0	510	686	
9	0	0	0	0	505	687	
10	0	0	0	0	503	686	
11	0	0	0	0	502	686	
12	0	0	0	0	499	686	
13	0	0	0	0	499	686	
14	0	0	0	0	500	686	
15	0	0	0	0	502	686	
0	0	0	0	0	504	686	
1	0	0	0	0	504	686	
2	0	0	0	0	504	686	
3	0	0	0	0	504	686	
4	0	0	0	0	503	686	
5	0	0	0	0	500	686	
6	0	0	0	0	499	686	
7	0	0	0	0	500	686	
8	0	0	0	0	502	686	
9	0	0	0	0	502	686	
10	0	0	0	0	500	686	
11	0	0	0	0	500	686	
12	0	0	0	0	500	686	
13	0	0	0	0	501	686	
14	0	0	0	0	500	686	
15	0	0	0	0	502	686	
0	0	0	0	0	507	686	
1	0	0	0	0	513	686	
2	0	0	0	0	520	686	
3	0	0	0	0	527	686	
4	0	0	0	0	532	686	
5	0	0	0	0	536	686	
6	0	0	0	0	535	686	
7	0	0	0	0	530	686	
8	0	0	0	0	523	685	
9	0	0	0	0	514	686	
10	0	0	0	0	505	685	
11	0	0	0	0	498	685	
12	0	0	0	0	494	686	
13	0	0	0	0	491	686	
14	0	0	0	0	489	686	
15	0	0	0	0	490	685	
0	0	0	0	0	491	685	
1	0	0	0	0	494	686	
2	0	0	0	0	496	686	
3	0	0	0	0	497	686	
4	0	0	0	0	500	685	
5	0	0	0	0	502	686	
6	0	0	0	0	502	685	
7	0	0	0	0	502	685	
8	0	0	0	0	502	686	
9	0	0	0	0	499	685	
10	0	0	0	0	497	685	
11	0	0	0	0	496	685	
12	0	0	0	0	493	685	
13	0	0	0	0	493	685	
14	0	0	0	0	494	685	
15	0	0	0	0	494	685	
0	0	0	0	0	493	685	
1	0	0	0	0	491	685	
2	0	0	0	0	492	685	
3	0	0	0	0	492	685	
4	0	0	0	0	492	685	
5	0	0	0	0	494	685	
6	0	0	0	0	496	685	
7	0	0	0	0	499	685	
8	0	0	0	0	503	685	
9	0	0	0	0	506	685	
10	0	0	0	0	508	685	
11	0	0	0	0	506	685	
12	0	0	0	0	507	685	
13	0	0	0	0	508	685	
14	0	0	0	0	509	685	
15	0	0	0	0	509	685	
0	0	0	0	0	509	685	
1	0	0	0	0	509	685	
2	0	0	0	0	506	684	
3	0	0	0	0	503	685	
4	0	0	0	0	500	685	
5	0	0	0	0	498	684	
6	0	0	0	0	496	685	
7	0	0	0	0	493	685	
8	0	0	0	0	495	685	
9	0	0	0	0	496	685	
10	0	0	0	0	496	684	
11	0	0	0	0	496	685	
12	0	0	0	0	496	685	
13	0	0	0	0	496	685	
14	0	0	0	0	497	685	
15	0	0	0	0	500	685	
0	0	0	0	0	505	684	
1	0	0	0	0	508	685	
2	0	0	0	0	511	685	
3	0	0	0	0	512	684	
4	0	0	0	0	514	684	
5	0	0	0	0	515	685	
6	0	0	0	0	516	684	
7	0	0	0	0	518	684	
8	0	0	0	0	518	684	
9	0	0	0	0	516	684	
10	0	0	0	0	514	684	
11	0	0	0	0	511	685	
12	0	0	0	0	509	684	
13	0	0	0	0	509	684	
14	0	0	0	0	508	685	
15	0	0	0	0	507	684	
0	0	0	0	0	505	684	
1	0	0	0	0	504	684	
2	0	0	0	0	504	684	
3	0	0	0	0	502	684	
4	0	0	0	0	502	684	
5	0	0	0	0	502	684	
6	0	0	0	0	503	684	
7	0	0	0	0	504	684	
8	0	0	0	0	504	684	
9	0	0	0	0	505	684	
10	0	0	0	0	507	684	
11	0	0	0	0	509	684	
12	0	0	0	0	510	684	
13	0	0	0	0	510	684	
14	0	0	0	0	509	684	
15	0	0	0	0	509	684	
0	0	0	0	0	510	684	
1	0	0	0	0	513	684	
2	0	0	0	0	519	684	
3	0	0	0	0	524	684	
4	0	0	0	0	528	684	
5	0	0	0	0	533	684	
6	0	0	0	0	536	684	
7	0	0	0	0	539	684	
8	0	0	0	0	540	684	
9	0	0	0	0	541	684	
10	0	0	0	0	540	684	
11	0	0	0	0	537	684	
12	0	0	0	0	535	684	
13	0	0	0	0	533	684	
14	0	0	0	0	532	684	
15	0	0	0	0	531	684	
0	0	0	0	0	531	684	
1	0	0	0	0	533	684	
2	0	0	0	0	535	684	
3	0	0	0	0	535	684	
4	0	0	0	0	534	684	
5	0	0	0	0	532	684	
6	0	0	0	0	531	684	
7	0	0	0	0	534	684	
8	0	0	0	0	537	684	
9	0	0	0	0	542	684	
10	0	0	0	0	546	684	
11	0	0	0	0	551	684	
12	0	0	0	0	558	684	
13	0	0	0	0	564	684	
14	0	0	0	0	568	684	
15	0	0	0	0	566	684	
0	0	0	0	0	560	684	
1	0	0	0	0	553	684	
2	0	0	0	0	545	684	
3	0	0	0	0	537	683	
4	0	0	0	0	531	684	
5	0	0	0	0	524	684	
6	0	0	0	0	520	684	
7	0	0	0	0	515	683	
8	0	0	0	0	511	683	
9	0	0	0	0	504	683	
10	0	0	0	0	499	684	
11	0	0	0	0	495	684	
12	0	0	0	0	492	684	
13	0	0	0	0	489	684	
14	0	0	0	0	488	684	
15	0	0	0	0	487	684	
0	0	0	0	0	487	683	
1	0	0	0	0	488	683	
2	0	0	0	0	488	683	
3	0	0	0	0	489	684	
4	0	0	0	0	488	683	
5	0	0	0	0	485	683	
6	0	0	0	0	486	683	
7	0	0	0	0	489	683	
8	0	0	0	0	494	683	
9	0	0	0	0	496	683	
10	0	0	0	0	497	684	
11	0	0	0	0	497	683	
12	0	0	0	0	495	683	
13	0	0	0	0	493	684	
14	0	0	0	0	489	683	
15	0	0	0	0	486	683	
0	0	0	0	0	485	683	
1	0	0	0	0	483	683	
2	0	0	0	0	485	683	
3	0	0	0	0	489	683	
4	0	0	0	0	497	683	
5	0	0	0	0	504	683	
6	0	0	0	0	510	683	
7	0	0	0	0	515	683	
8	0	0	0	0	520	683	
9	0	0	0	0	524	683	
10	0	0	0	0	528	683	
11	0	0	0	0	531	683	
12	0	0	0	0	531	683	
13	0	0	0	0	527	683	
14	0	0	0	0	520	683	
15	0	0	0	0	511	683	
0	0	0	0	0	505	683	
1	0	0	0	0	499	683	
2	0	0	0	0	495	683	
3	0	0	0	0	492	683	
4	0	0	0	0	491	683	
5	0	0	0	0	489	683	
6	0	0	0	0	487	683	
7	0	0	0	0	486	683	
8	0	0	0	0	486	683	
9	0	0	0	0	486	683	
10	0	0	0	0	488	683	
11	0	0	0	0	490	683	
12	0	0	0	0	493	683	
13	0	0	0	0	496	683	
14	0	0	0	0	499	683	
15	0	0	0	0	502	683	
0	0	0	0	0	505	683	
1	0	0	0	0	507	683	
2	0	0	0	0	507	683	
3	0	0	0	0	506	683	
4	0	0	0	0	503	683	
5	0	0	0	0	500	683	
6	0	0	0	0	496	683	
7	0	0	0	0	490	683	
8	0	0	0	0	485	683	
9	0	0	0	0	482	683	
10	0	0	0	0	480	683	
11	0	0	0	0	477	683	
12	0	0	0	0	476	683	
13	0	0	0	0	474	683	
14	0	0	0	0	472	682	
15	0	0	0	0	475	683	
0	0	0	0	0	481	683	
1	0	0	0	0	489	683	
2	0	0	0	0	497	683	
3	0	0	0	0	507	682	
4	0	0	0	0	518	682	
5	0	0	0	0	530	683	
6	0	0	0	0	541	683	
7	0	0	0	0	551	683	
8	0	0	0	0	561	682	
9	0	0	0	0	579	683	
10	0	0	0	0	603	682	
11	0	0	0	0	633	682	
12	0	0	0	0	668	683	
13	0	0	0	0	703	682	
14	0	0	0	0	739	683	
15	0	0	0	0	772	682	
0	0	0	0	0	799	682	
1	0	0	0	0	823	683	
2	0	0	0	0	844	682	
3	0	0	0	0	866	683	
4	0	0	0	0	889	682	
5	0	0	0	0	913	682	
6	0	0	0	0	931	683	
7	0	0	0	0	942	682	
8	0	0	0	0	947	683	
9	0	0	0	0	947	682	
10	0	0	0	0	944	682	
11	0	0	0	0	934	682	
12	0	0	0	0	910	682	
13	0	0	0	0	875	682	
14	0	0	0	0	832	682	
15	0	0	0	0	784	682	
0	0	0	0	0	733	682	
1	0	0	0	0	684	682	
2	0	0	0	0	638	682	
3	0	0	0	0	595	682	
4	0	0	0	0	557	682	
5	0	0	0	0	523	682	
6	0	0	0	0	497	682	
7	0	0	0	0	480	682	
8	0	0	0	0	465	682	
9	0	0	0	0	451	682	
10	0	0	0	0	440	682	
11	0	0	0	0	429	682	
12	0	0	0	0	419	682	
13	0	0	0	0	405	682	
14	0	0	0	0	391	682	
15	0	0	0	0	379	682	
0	0	0	0	0	371	682	
1	0	0	0	0	368	682	
2	0	0	0	0	365	682	
3	0	0	0	0	359	682	
4	0	0	0	0	356	682	
5	0	0	0	0	355	682	
6	0	0	0	0	355	682	
7	0	0	0	0	357	681	
8	0	0	0	0	360	682	
9	0	0	0	0	363	682	
10	0	0	0	0	368	682	
11	0	0	0	0	377	682	
12	0	0	0	0	387	682	
13	0	0	0	0	396	682	
14	0	0	0	0	407	682	
15	0	0	0	0	416	682	
0	0	0	0	0	424	681	
1	0	0	0	0	433	682	
2	0	0	0	0	440	682	
3	0	0	0	0	444	682	
4	0	0	0	0	448	681	
5	0	0	0	0	453	682	
6	0	0	0	0	458	681	
7	0	0	0	0	461	682	
8	0	0	0	0	465	681	
9	0	0	0	0	470	681	
10	0	0	0	0	475	682	
11	0	0	0	0	479	681	
12	0	0	0	0	484	682	
13	0	0	0	0	491	682	
14	0	0	0	0	496	681	
15	0	0	0	0	503	682	
0	0	0	0	0	508	681	
1	0	0	0	0	511	682	
2	0	0	0	0	513	681	
3	0	0	0	0	515	681	
4	0	0	0	0	513	682	
5	0	0	0	0	511	681	
6	0	0	0	0	507	681	
7	0	0	0	0	503	682	
8	0	0	0	0	501	681	
9	0	0	0	0	501	682	
10	0	0	0	0	503	681	
11	0	0	0	0	505	681	
12	0	0	0	0	511	682	
13	0	0	0	0	518	681	
14	0	0	0	0	528	681	
15	0	0	0	0	538	681	
0	0	0	0	0	544	681	
1	0	0	0	0	549	681	
2	0	0	0	0	549	681	
3	0	0	0	0	546	681	
4	0	0	0	0	544	681	
5	0	0	0	0	538	681	
6	0	0	0	0	531	681	
7	0	0	0	0	524	681	
8	0	0	0	0	517	681	
9	0	0	0	0	515	681	
10	0	0	0	0	516	681	
11	0	0	0	0	517	681	
12	0	0	0	0	515	681	
13	0	0	0	0	514	681	
14	0	0	0	0	513	681	
15	0	0	0	0	511	681	
0	0	0	0	0	509	681	
1	0	0	0	0	505	681	
2	0	0	0	0	501	681	
3	0	0	0	0	503	681	
4	0	0	0	0	509	681	
5	0	0	0	0	514	681	
6	0	0	0	0	518	681	
7	0	0	0	0	519	681	
8	0	0	0	0	521	681	
9	0	0	0	0	522	681	
10	0	0	0	0	524	681	
11	0	0	0	0	524	681	
12	0	0	0	0	524	681	
13	0	0	0	0	524	681	
14	0	0	0	0	526	681	
15	0	0	0	0	527	681	
0	0	0	0	0	529	681	
1	0	0	0	0	531	681	
2	0	0	0	0	532	681	
3	0	0	0	0	532	681	
4	0	0	0	0	535	681	
5	0	0	0	0	538	681	
6	0	0	0	0	540	681	
7	0	0	0	0	540	681	
8	0	0	0	0	540	681	
9	0	0	0	0	540	681	
10	0	0	0	0	540	681	
11	0	0	0	0	542	681	
12	0	0	0	0	542	681	
13	0	0	0	0	543	681	
14	0	0	0	0	545	681	
15	0	0	0	0	547	681	
0	0	0	0	0	550	681	
1	0	0	0	0	553	681	
2	0	0	0	0	555	681	
3	0	0	0	0	555	681	
4	0	0	0	0	557	681	
5	0	0	0	0	561	681	
6	0	0	0	0	563	681	
7	0	0	0	0	563	681	
8	0	0	0	0	564	681	
9	0	0	0	0	566	681	
10	0	0	0	0	569	681	
11	0	0	0	0	570	681	
12	0	0	0	0	572	681	
13	0	0	0	0	570	681	
14	0	0	0	0	568	681	
15	0	0	0	0	568	681	
0	0	0	0	0	568	681	
1	0	0	0	0	571	681	
2	0	0	0	0	575	681	
3	0	0	0	0	575	681	
4	0	0	0	0	575	681	
5	0	0	0	0	576	681	
6	0	0	0	0	578	681	
7	0	0	0	0	580	681	
8	0	0	0	0	583	681	
9	0	0	0	0	583	681	
10	0	0	0	0	583	681	
11	0	0	0	0	582	681	
12	0	0	0	0	582	681	
13	0	0	0	0	582	681	
14	0	0	0	0	582	681	
15	0	0	0	0	585	681	
0	0	0	0	0	591	681	
1	0	0	0	0	599	681	
2	0	0	0	0	610	681	
3	0	0	0	0	620	681	
4	0	0	0	0	626	681	
5	0	0	0	0	631	681	
6	0	0	0	0	632	681	
7	0	0	0	0	628	680	
8	0	0	0	0	621	681	
9	0	0	0	0	611	681	
10	0	0	0	0	597	681	
11	0	0	0	0	584	681	
12	0	0	0	0	574	681	
13	0	0	0	0	564	681	
14	0	0	0	0	557	681	
15	0	0	0	0	551	681	
0	0	0	0	0	547	681	
1	0	0	0	0	548	681	
2	0	0	0	0	551	681	
3	0	0	0	0	554	681	
4	0	0	0	0	557	681	
5	0	0	0	0	560	681	
6	0	0	0	0	565	681	
7	0	0	0	0	569	681	
8	0	0	0	0	570	681	
9	0	0	0	0	573	681	
10	0	0	0	0	576	681	
11	0	0	0	0	578	681	
12	0	0	0	0	579	681	
13	0	0	0	0	580	681	
14	0	0	0	0	582	681	
15	0	0	0	0	582	681	
0	0	0	0	0	583	681	
1	0	0	0	0	583	681	
2	0	0	0	0	584	681	
3	0	0	0	0	585	681	
4	0	0	0	0	585	681	
5	0	0	0	0	583	681	
6	0	0	0	0	583	681	
7	0	0	0	0	581	681	
8	0	0	0	0	581	681	
9	0	0	0	0	580	681	
10	0	0	0	0	579	681	
11	0	0	0	0	577	681	
12	0	0	0	0	576	681	
13	0	0	0	0	576	681	
14	0	0	0	0	579	681	
15	0	0	0	0	582	681	
0	0	0	0	0	582	681	
1	0	0	0	0	583	681	
2	0	0	0	0	584	681	
3	0	0	0	0	588	681	
4	0	0	0	0	591	681	
5	0	0	0	0	591	681	
6	0	0	0	0	591	681	
7	0	0	0	0	590	681	
8	0	0	0	0	590	681	
9	0	0	0	0	590	681	
10	0	0	0	0	590	681	
11	0	0	0	0	589	681	
12	0	0	0	0	587	681	
13	0	0	0	0	582	681	
14	0	0	0	0	580	681	
15	0	0	0	0	579	681	
0	0	0	0	0	576	681	
1	0	0	0	0	578	681	
2	0	0	0	0	582	681	
3	0	0	0	0	590	681	
4	0	0	0	0	600	681	
5	0	0	0	0	609	681	
6	0	0	0	0	617	681	
7	0	0	0	0	620	681	
8	0	0	0	0	619	680	
9	0	0	0	0	610	681	
10	0	0	0	0	599	680	
11	0	0	0	0	588	681	
12	0	0	0	0	579	681	
13	0	0	0	0	572	681	
14	0	0	0	0	568	681	
15	0	0	0	0	566	681	
0	0	0	0	0	566	681	
1	0	0	0	0	566	681	
2	0	0	0	0	565	681	
3	0	0	0	0	564	681	
4	0	0	0	0	565	681	
5	0	0	0	0	566	681	
6	0	0	0	0	568	681	
7	0	0	0	0	568	681	
8	0	0	0	0	566	680	
9	0	0	0	0	566	681	
10	0	0	0	0	565	681	
11	0	0	0	0	564	681	
12	0	0	0	0	562	681	
13	0	0	0	0	558	681	
14	0	0	0	0	556	681	
15	0	0	0	0	553	680	
0	0	0	0	0	555	681	
1	0	0	0	0	554	681	
2	0	0	0	0	555	681	
3	0	0	0	0	556	681	
4	0	0	0	0	559	681	
5	0	0	0	0	561	681	
6	0	0	0	0	563	680	
7	0	0	0	0	565	681	
8	0	0	0	0	565	680	
9	0	0	0	0	563	681	
10	0	0	0	0	560	680	
11	0	0	0	0	560	680	
12	0	0	0	0	560	681	
13	0	0	0	0	558	680	
14	0	0	0	0	555	681	
15	0	0	0	0	551	680	
0	0	0	0	0	548	680	
1	0	0	0	0	547	681	
2	0	0	0	0	547	680	
3	0	0	0	0	545	680	
4	0	0	0	0	545	681	
5	0	0	0	0	546	681	
6	0	0	0	0	546	681	
7	0	0	0	0	546	681	
8	0	0	0	0	544	680	
9	0	0	0	0	543	680	
10	0	0	0	0	541	680	
11	0	0	0	0	538	681	
12	0	0	0	0	537	681	
13	0	0	0	0	535	680	
14	0	0	0	0	532	680	
15	0	0	0	0	531	680	
0	0	0	0	0	531	681	
1	0	0	0	0	532	680	
2	0	0	0	0	533	681	
3	0	0	0	0	531	681	
4	0	0	0	0	531	681	
5	0	0	0	0	529	681	
6	0	0	0	0	529	681	
7	0	0	0	0	530	680	
8	0	0	0	0	530	681	
9	0	0	0	0	529	680	
10	0	0	0	0	529	681	
11	0	0	0	0	529	680	
12	0	0	0	0	530	680	
13	0	0	0	0	529	680	
14	0	0	0	0	527	681	
15	0	0	0	0	526	681	
0	0	0	0	0	526	681	
1	0	0	0	0	527	680	
2	0	0	0	0	528	681	
3	0	0	0	0	529	681	
4	0	0	0	0	529	681	
5	0	0	0	0	529	681	
6	0	0	0	0	531	681	
7	0	0	0	0	532	681	
8	0	0	0	0	534	681	
9	0	0	0	0	534	681	
10	0	0	0	0	533	680	
11	0	0	0	0	532	681	
12	0	0	0	0	532	680	
13	0	0	0	0	531	681	
14	0	0	0	0	529	681	
15	0	0	0	0	527	681	
0	0	0	0	0	527	680	
1	0	0	0	0	527	681	
2	0	0	0	0	527	681	
3	0	0	0	0	527	681	
4	0	0	0	0	528	681	
5	0	0	0	0	527	681	
6	0	0	0	0	527	681	
7	0	0	0	0	528	680	
8	0	0	0	0	530	681	
9	0	0	0	0	531	680	
10	0	0	0	0	529	681	
11	0	0	0	0	527	681	
12	0	0	0	0	525	681	
13	0	0	0	0	525	681	
14	0	0	0	0	525	680	
15	0	0	0	0	524	681	
0	0	0	0	0	523	681	
1	0	0	0	0	523	681	
2	0	0	0	0	524	681	
3	0	0	0	0	526	681	
4	0	0	0	0	527	681	
5	0	0	0	0	530	681	
6	0	0	0	0	532	681	
7	0	0	0	0	532	681	
8	0	0	0	0	533	680	
9	0	0	0	0	535	681	
10	0	0	0	0	536	681	
11	0	0	0	0	538	680	
12	0	0	0	0	537	681	
13	0	0	0	0	536	681	
14	0	0	0	0	535	681	
15	0	0	0	0	535	681	
0	0	0	0	0	533	681	
1	0	0	0	0	530	681	
2	0	0	0	0	529	681	
3	0	0	0	0	531	681	
4	0	0	0	0	533	681	
5	0	0	0	0	533	681	
6	0	0	0	0	534	681	
7	0	0	0	0	534	681	
8	0	0	0	0	538	681	
9	0	0	0	0	542	681	
10	0	0	0	0	546	681	
11	0	0	0	0	548	681	
12	0	0	0	0	548	681	
13	0	0	0	0	551	681	
14	0	0	0	0	552	681	
15	0	0	0	0	554	681	
0	0	0	0	0	555	681	
1	0	0	0	0	553	681	
2	0	0	0	0	549	681	
3	0	0	0	0	545	681	
4	0	0	0	0	543	681	
5	0	0	0	0	543	681	
6	0	0	0	0	540	681	
7	0	0	0	0	539	681	
8	0	0	0	0	539	680	
9	0	0	0	0	541	681	
10	0	0	0	0	544	681	
11	0	0	0	0	547	681	
12	0	0	0	0	549	681	
13	0	0	0	0	550	681	
14	0	0	0	0	552	681	
15	0	0	0	0	554	681	
0	0	0	0	0	555	681	
1	0	0	0	0	554	681	
2	0	0	0	0	551	681	
3	0	0	0	0	550	681	
4	0	0	0	0	551	681	
5	0	0	0	0	553	681	
6	0	0	0	0	556	681	
7	0	0	0	0	557	681	
8	0	0	0	0	559	681	
9	0	0	0	0	561	681	
10	0	0	0	0	564	681	
11	0	0	0	0	568	681	
12	0	0	0	0	569	681	
13	0	0	0	0	569	681	
14	0	0	0	0	568	681	
15	0	0	0	0	568	681	
0	0	0	0	0	568	681	
1	0	0	0	0	569	681	
2	0	0	0	0	568	680	
3	0	0	0	0	564	681	
4	0	0	0	0	560	681	
5	0	0	0	0	559	681	
6	0	0	0	0	559	680	
7	0	0	0	0	559	680	
8	0	0	0	0	559	681	
9	0	0	0	0	560	680	
10	0	0	0	0	562	681	
11	0	0	0	0	564	681	
12	0	0	0	0	568	681	
13	0	0	0	0	570	681	
14	0	0	0	0	570	681	
15	0	0	0	0	568	681	
0	0	0	0	0	567	681	
1	0	0	0	0	567	681	
2	0	0	0	0	564	681	
3	0	0	0	0	560	681	
4	0	0	0	0	557	681	
5	0	0	0	0	555	681	
6	0	0	0	0	556	681	
7	0	0	0	0	560	681	
8	0	0	0	0	564	681	
9	0	0	0	0	567	681	
10	0	0	0	0	568	681	
11	0	0	0	0	569	681	
12	0	0	0	0	571	681	
13	0	0	0	0	572	680	
14	0	0	0	0	571	680	
15	0	0	0	0	570	681	
0	0	0	0	0	570	680	
1	0	0	0	0	572	681	
2	0	0	0	0	572	680	
3	0	0	0	0	572	681	
4	0	0	0	0	571	681	
5	0	0	0	0	568	680	
6	0	0	0	0	565	681	
7	0	0	0	0	562	680	
8	0	0	0	0	559	681	
9	0	0	0	0	558	681	
10	0	0	0	0	559	681	
11	0	0	0	0	562	681	
12	0	0	0	0	565	681	
13	0	0	0	0	568	681	
14	0	0	0	0	571	681	
15	0	0	0	0	572	680	
0	0	0	0	0	571	681	
1	0	0	0	0	569	681	
2	0	0	0	0	566	681	
3	0	0	0	0	561	681	
4	0	0	0	0	558	681	
5	0	0	0	0	553	681	
6	0	0	0	0	549	680	
7	0	0	0	0	548	680	
8	0	0	0	0	548	681	
9	0	0	0	0	551	680	
10	0	0	0	0	554	681	
11	0	0	0	0	554	680	
12	0	0	0	0	556	681	
13	0	0	0	0	561	681	
14	0	0	0	0	567	681	
15	0	0	0	0	572	681	
0	0	0	0	0	574	680	
1	0	0	0	0	573	680	
2	0	0	0	0	571	681	
3	0	0	0	0	569	680	
4	0	0	0	0	569	681	
5	0	0	0	0	569	681	
6	0	0	0	0	568	680	
7	0	0	0	0	571	681	
8	0	0	0	0	575	680	
9	0	0	0	0	578	681	
10	0	0	0	0	582	680	
11	0	0	0	0	584	680	
12	0	0	0	0	588	680	
13	0	0	0	0	593	680	
14	0	0	0	0	598	680	
15	0	0	0	0	600	680	
0	0	0	0	0	601	680	
1	0	0	0	0	604	680	
2	0	0	0	0	606	680	
3	0	0	0	0	608	681	
4	0	0	0	0	607	680	
5	0	0	0	0	606	680	
6	0	0	0	0	603	680	
7	0	0	0	0	602	680	
8	0	0	0	0	600	680	
9	0	0	0	0	600	680	
10	0	0	0	0	598	680	
11	0	0	0	0	598	680	
12	0	0	0	0	601	680	
13	0	0	0	0	604	680	
14	0	0	0	0	606	680	
15	0	0	0	0	612	680	
0	0	0	0	0	618	680	
1	0	0	0	0	622	680	
2	0	0	0	0	623	681	
3	0	0	0	0	624	680	
4	0	0	0	0	622	680	
5	0	0	0	0	618	680	
6	0	0	0	0	615	680	
7	0	0	0	0	612	680	
8	0	0	0	0	609	680	
9	0	0	0	0	608	680	
10	0	0	0	0	608	680	
11	0	0	0	0	607	680	
12	0	0	0	0	607	680	
13	0	0	0	0	607	680	
14	0	0	0	0	608	680	
15	0	0	0	0	609	680	
0	0	0	0	0	607	680	
1	0	0	0	0	604	680	
2	0	0	0	0	600	680	
3	0	0	0	0	596	680	
4	0	0	0	0	596	680	
5	0	0	0	0	597	680	
6	0	0	0	0	599	680	
7	0	0	0	0	600	680	
8	0	0	0	0	598	680	
9	0	0	0	0	596	680	
10	0	0	0	0	593	680	
11	0	0	0	0	593	680	
12	0	0	0	0	590	680	
13	0	0	0	0	588	680	
14	0	0	0	0	583	680	
15	0	0	0	0	576	680	
0	0	0	0	0	570	680	
1	0	0	0	0	563	680	
2	0	0	0	0	556	680	
3	0	0	0	0	549	680	
4	0	0	0	0	544	680	
5	0	0	0	0	540	680	
6	0	0	0	0	536	680	
7	0	0	0	0	534	680	
8	0	0	0	0	531	680	
9	0	0	0	0	529	680	
10	0	0	0	0	528	680	
11	0	0	0	0	531	680	
12	0	0	0	0	534	680	
13	0	0	0	0	537	680	
14	0	0	0	0	536	680	
15	0	0	0	0	536	680	
0	0	0	0	0	535	680	
1	0	0	0	0	533	680	
2	0	0	0	0	529	680	
3	0	0	0	0	527	680	
4	0	0	0	0	528	680	
5	0	0	0	0	532	680	
6	0	0	0	0	536	680	
7	0	0	0	0	538	680	
8	0	0	0	0	538	680	
9	0	0	0	0	538	680	
10	0	0	0	0	539	680	
11	0	0	0	0	539	680	
12	0	0	0	0	537	680	
13	0	0	0	0	538	680	
14	0	0	0	0	536	680	
15	0	0	0	0	535	680	
0	0	0	0	0	536	680	
1	0	0	0	0	537	680	
2	0	0	0	0	536	680	
3	0	0	0	0	535	680	
4	0	0	0	0	534	680	
5	0	0	0	0	535	680	
6	0	0	0	0	535	680	
7	0	0	0	0	536	679	
8	0	0	0	0	538	680	
9	0	0	0	0	539	680	
10	0	0	0	0	539	680	
11	0	0	0	0	540	679	
12	0	0	0	0	540	680	
13	0	0	0	0	542	680	
14	0	0	0	0	541	680	
15	0	0	0	0	541	679	
0	0	0	0	0	542	680	
1	0	0	0	0	545	679	
2	0	0	0	0	550	680	
3	0	0	0	0	553	680	
4	0	0	0	0	556	680	
5	0	0	0	0	557	679	
6	0	0	0	0	558	680	
7	0	0	0	0	559	680	
8	0	0	0	0	558	679	
9	0	0	0	0	553	680	
10	0	0	0	0	550	679	
11	0	0	0	0	547	679	
12	0	0	0	0	545	680	
13	0	0	0	0	545	680	
14	0	0	0	0	547	679	
15	0	0	0	0	549	680	
0	0	0	0	0	551	679	
1	0	0	0	0	553	680	
2	0	0	0	0	554	680	
3	0	0	0	0	554	679	
4	0	0	0	0	551	679	
5	0	0	0	0	548	679	
6	0	0	0	0	543	680	
7	0	0	0	0	538	679	
8	0	0	0	0	533	679	
9	0	0	0	0	529	679	
10	0	0	0	0	527	679	
11	0	0	0	0	525	679	
12	0	0	0	0	525	680	
13	0	0	0	0	526	679	
14	0	0	0	0	530	679	
15	0	0	0	0	537	679	
0	0	0	0	0	546	680	
1	0	0	0	0	557	679	
2	0	0	0	0	570	679	
3	0	0	0	0	583	679	
4	0	0	0	0	598	679	
5	0	0	0	0	617	679	
6	0	0	0	0	643	679	
7	0	0	0	0	673	679	
8	0	0	0	0	705	679	
9	0	0	0	0	740	679	
10	0	0	0	0	775	680	
11	0	0	0	0	804	679	
12	0	0	0	0	831	679	
13	0	0	0	0	858	679	
14	0	0	0	0	886	679	
15	0	0	0	0	916	679	
0	0	0	0	0	946	679	
1	0	0	0	0	974	679	
2	0	0	0	0	992	679	
3	0	0	0	0	1002	679	
4	0	0	0	0	1006	679	
5	0	0	0	0	1004	679	
6	0	0	0	0	995	679	
7	0	0	0	0	976	679	
8	0	0	0	0	947	679	
9	0	0	0	0	908	679	
10	0	0	0	0	862	679	
11	0	0	0	0	816	679	
12	0	0	0	0	768	679	
13	0	0	0	0	722	679	
14	0	0	0	0	679	679	
15	0	0	0	0	643	679	
0	0	0	0	0	610	679	
1	0	0	0	0	579	679	
2	0	0	0	0	554	679	
3	0	0	0	0	536	679	
4	0	0	0	0	522	679	
5	0	0	0	0	509	679	
6	0	0	0	0	496	679	
7	0	0	0	0	482	679	
8	0	0	0	0	470	679	
9	0	0	0	0	456	679	
10	0	0	0	0	438	679	
11	0	0	0	0	419	679	
12	0	0	0	0	402	679	
13	0	0	0	0	389	679	
14	0	0	0	0	380	679	
15	0	0	0	0	376	679	
0	0	0	0	0	377	679	
1	0	0	0	0	381	679	
2	0	0	0	0	388	679	
3	0	0	0	0	397	679	
4	0	0	0	0	407	679	
5	0	0	0	0	415	679	
6	0	0	0	0	425	679	
7	0	0	0	0	434	679	
8	0	0	0	0	441	679	
9	0	0	0	0	449	679	
10	0	0	0	0	456	679	
11	0	0	0	0	462	679	
12	0	0	0	0	468	679	
13	0	0	0	0	473	679	
14	0	0	0	0	476	679	
15	0	0	0	0	480	679	
0	0	0	0	0	486	679	
1	0	0	0	0	494	679	
2	0	0	0	0	502	679	
3	0	0	0	0	506	679	
4	0	0	0	0	512	679	
5	0	0	0	0	520	679	
6	0	0	0	0	526	679	
7	0	0	0	0	531	679	
8	0	0	0	0	535	679	
9	0	0	0	0	536	679	
10	0	0	0	0	537	679	
11	0	0	0	0	539	679	
12	0	0	0	0	543	679	
13	0	0	0	0	547	679	
14	0	0	0	0	551	679	
15	0	0	0	0	555	679	
0	0	0	0	0	560	679	
1	0	0	0	0	565	679	
2	0	0	0	0	568	679	
3	0	0	0	0	570	679	
4	0	0	0	0	570	679	
5	0	0	0	0	572	679	
6	0	0	0	0	574	679	
7	0	0	0	0	577	679	
8	0	0	0	0	579	679	
9	0	0	0	0	579	679	
10	0	0	0	0	575	679	
11	0	0	0	0	573	679	
12	0	0	0	0	568	679	
13	0	0	0	0	561	679	
14	0	0	0	0	559	679	
15	0	0	0	0	558	679	
0	0	0	0	0	558	679	
1	0	0	0	0	560	679	
2	0	0	0	0	561	679	
3	0	0	0	0	563	679	
4	0	0	0	0	566	679	
5	0	0	0	0	567	679	
6	0	0	0	0	568	679	
7	0	0	0	0	570	679	
8	0	0	0	0	571	679	
9	0	0	0	0	572	679	
10	0	0	0	0	569	679	
11	0	0	0	0	567	679	
12	0	0	0	0	563	679	
13	0	0	0	0	560	679	
14	0	0	0	0	557	679	
15	0	0	0	0	554	679	
0	0	0	0	0	552	679	
1	0	0	0	0	554	679	
2	0	0	0	0	555	679	
3	0	0	0	0	556	679	
4	0	0	0	0	558	679	
5	0	0	0	0	563	679	
6	0	0	0	0	569	679	
7	0	0	0	0	577	679	
8	0	0	0	0	583	679	
9	0	0	0	0	586	679	
10	0	0	0	0	586	679	
11	0	0	0	0	583	679	
12	0	0	0	0	581	679	
13	0	0	0	0	580	679	
14	0	0	0	0	575	679	
15	0	0	0	0	571	679	
0	0	0	0	0	567	679	
1	0	0	0	0	564	679	
2	0	0	0	0	563	679	
3	0	0	0	0	565	679	
4	0	0	0	0	570	679	
5	0	0	0	0	575	679	
6	0	0	0	0	581	679	
7	0	0	0	0	590	679	
8	0	0	0	0	601	679	
9	0	0	0	0	612	679	
10	0	0	0	0	619	679	
11	0	0	0	0	623	679	
12	0	0	0	0	624	679	
13	0	0	0	0	624	679	
14	0	0	0	0	623	679	
15	0	0	0	0	616	679	
0	0	0	0	0	607	679	
1	0	0	0	0	597	679	
2	0	0	0	0	587	679	
3	0	0	0	0	582	679	
4	0	0	0	0	579	679	
5	0	0	0	0	577	679	
6	0	0	0	0	576	679	
7	0	0	0	0	575	679	
8	0	0	0	0	575	679	
9	0	0	0	0	577	679	
10	0	0	0	0	579	679	
11	0	0	0	0	581	679	
12	0	0	0	0	583	679	
13	0	0	0	0	586	679	
14	0	0	0	0	587	679	
15	0	0	0	0	588	679	
0	0	0	0	0	588	679	
1	0	0	0	0	588	679	
2	0	0	0	0	590	679	
3	0	0	0	0	596	679	
4	0	0	0	0	604	679	
5	0	0	0	0	611	679	
6	0	0	0	0	617	679	
7	0	0	0	0	622	679	
8	0	0	0	0	628	679	
9	0	0	0	0	635	679	
10	0	0	0	0	639	679	
11	0	0	0	0	639	679	
12	0	0	0	0	636	679	
13	0	0	0	0	627	679	
14	0	0	0	0	614	679	
15	0	0	0	0	603	679	
0	0	0	0	0	591	679	
1	0	0	0	0	580	679	
2	0	0	0	0	574	679	
3	0	0	0	0	570	679	
4	0	0	0	0	569	679	
5	0	0	0	0	571	679	
6	0	0	0	0	576	679	
7	0	0	0	0	579	679	
8	0	0	0	0	582	679	
9	0	0	0	0	589	679	
10	0	0	0	0	600	679	
11	0	0	0	0	612	679	
12	0	0	0	0	622	679	
13	0	0	0	0	628	679	
14	0	0	0	0	630	679	
15	0	0	0	0	633	679	
0	0	0	0	0	635	679	
1	0	0	0	0	633	679	
2	0	0	0	0	627	679	
3	0	0	0	0	618	679	
4	0	0	0	0	614	679	
5	0	0	0	0	612	679	
6	0	0	0	0	613	679	
7	0	0	0	0	614	679	
8	0	0	0	0	616	679	
9	0	0	0	0	617	679	
10	0	0	0	0	617	679	
11	0	0	0	0	617	679	
12	0	0	0	0	615	679	
13	0	0	0	0	611	679	
14	0	0	0	0	600	679	
15	0	0	0	0	591	679	
0	0	0	0	0	587	679	
1	0	0	0	0	582	679	
2	0	0	0	0	576	679	
3	0	0	0	0	573	679	
4	0	0	0	0	572	679	
5	0	0	0	0	572	679	
6	0	0	0	0	574	679	
7	0	0	0	0	577	679	
8	0	0	0	0	579	679	
9	0	0	0	0	581	679	
10	0	0	0	0	584	679	
11	0	0	0	0	586	679	
12	0	0	0	0	591	679	
13	0	0	0	0	594	679	
14	0	0	0	0	598	679	
15	0	0	0	0	600	679	
0	0	0	0	0	602	679	
1	0	0	0	0	603	679	
2	0	0	0	0	605	679	
3	0	0	0	0	605	679	
4	0	0	0	0	604	679	
5	0	0	0	0	603	679	
6	0	0	0	0	603	679	
7	0	0	0	0	604	679	
8	0	0	0	0	604	679	
9	0	0	0	0	604	679	
10	0	0	0	0	602	679	
11	0	0	0	0	601	679	
12	0	0	0	0	601	679	
13	0	0	0	0	604	679	
14	0	0	0	0	606	679	
15	0	0	0	0	607	679	
0	0	0	0	0	607	679	
1	0	0	0	0	606	679	
2	0	0	0	0	602	679	
3	0	0	0	0	600	679	
4	0	0	0	0	597	679	
5	0	0	0	0	595	679	
6	0	0	0	0	593	679	
7	0	0	0	0	591	679	
8	0	0	0	0	588	679	
9	0	0	0	0	586	679	
10	0	0	0	0	582	679	
11	0	0	0	0	580	679	
12	0	0	0	0	580	679	
13	0	0	0	0	580	679	
14	0	0	0	0	580	679	
15	0	0	0	0	578	679	
0	0	0	0	0	575	679	
1	0	0	0	0	576	679	
2	0	0	0	0	576	679	
3	0	0	0	0	576	679	
4	0	0	0	0	572	679	
5	0	0	0	0	572	679	
6	0	0	0	0	569	679	
7	0	0	0	0	569	679	
8	0	0	0	0	567	679	
9	0	0	0	0	566	679	
10	0	0	0	0	564	679	
11	0	0	0	0	564	679	
12	0	0	0	0	566	679	
13	0	0	0	0	568	679	
14	0	0	0	0	570	679	
15	0	0	0	0	572	679	
0	0	0	0	0	573	679	
1	0	0	0	0	572	679	
2	0	0	0	0	572	679	
3	0	0	0	0	574	679	
4	0	0	0	0	573	679	
5	0	0	0	0	571	679	
6	0	0	0	0	569	679	
7	0	0	0	0	568	679	
8	0	0	0	0	566	679	
9	0	0	0	0	566	679	
10	0	0	0	0	566	679	
11	0	0	0	0	566	679	
12	0	0	0	0	567	679	
13	0	0	0	0	569	679	
14	0	0	0	0	571	679	
15	0	0	0	0	572	679	
0	0	0	0	0	570	679	
1	0	0	0	0	569	679	
2	0	0	0	0	568	679	
3	0	0	0	0	566	679	
4	0	0	0	0	565	679	
5	0	0	0	0	564	679	
6	0	0	0	0	564	679	
7	0	0	0	0	563	679	
8	0	0	0	0	558	679	
9	0	0	0	0	556	679	
10	0	0	0	0	556	679	
11	0	0	0	0	555	679	
12	0	0	0	0	554	679	
13	0	0	0	0	551	679	
14	0	0	0	0	547	678	
15	0	0	0	0	542	679	
0	0	0	0	0	535	679	
1	0	0	0	0	529	679	
2	0	0	0	0	522	679	
3	0	0	0	0	514	679	
4	0	0	0	0	512	678	
5	0	0	0	0	513	679	
6	0	0	0	0	512	678	
7	0	0	0	0	510	679	
8	0	0	0	0	507	679	
9	0	0	0	0	507	679	
10	0	0	0	0	508	678	
11	0	0	0	0	508	679	
12	0	0	0	0	511	679	
13	0	0	0	0	509	679	
14	0	0	0	0	507	678	
15	0	0	0	0	509	678	
0	0	0	0	0	513	679	
1	0	0	0	0	519	679	
2	0	0	0	0	522	679	
3	0	0	0	0	521	678	
4	0	0	0	0	521	679	
5	0	0	0	0	521	679	
6	0	0	0	0	521	678	
7	0	0	0	0	521	678	
8	0	0	0	0	520	678	
9	0	0	0	0	521	678	
10	0	0	0	0	522	678	
11	0	0	0	0	525	679	
12	0	0	0	0	527	678	
13	0	0	0	0	530	678	
14	0	0	0	0	532	678	
15	0	0	0	0	536	679	
0	0	0	0	0	537	679	
1	0	0	0	0	538	679	
2	0	0	0	0	537	679	
3	0	0	0	0	539	678	
4	0	0	0	0	539	679	
5	0	0	0	0	540	679	
6	0	0	0	0	541	679	
7	0	0	0	0	537	678	
8	0	0	0	0	532	678	
9	0	0	0	0	531	679	
10	0	0	0	0	530	678	
11	0	0	0	0	533	679	
12	0	0	0	0	538	679	
13	0	0	0	0	542	679	
14	0	0	0	0	544	679	
15	0	0	0	0	545	679	
0	0	0	0	0	544	678	
1	0	0	0	0	543	679	
2	0	0	0	0	545	678	
3	0	0	0	0	548	679	
4	0	0	0	0	552	679	
5	0	0	0	0	555	679	
6	0	0	0	0	558	678	
7	0	0	0	0	559	679	
8	0	0	0	0	560	679	
9	0	0	0	0	560	678	
10	0	0	0	0	560	678	
11	0	0	0	0	563	678	
12	0	0	0	0	564	679	
13	0	0	0	0	565	679	
14	0	0	0	0	565	679	
15	0	0	0	0	562	679	
0	0	0	0	0	558	678	
1	0	0	0	0	556	679	
2	0	0	0	0	555	679	
3	0	0	0	0	555	679	
4	0	0	0	0	557	679	
5	0	0	0	0	556	678	
6	0	0	0	0	556	679	
7	0	0	0	0	554	679	
8	0	0	0	0	550	679	
9	0	0	0	0	549	678	
10	0	0	0	0	548	679	
11	0	0	0	0	550	679	
12	0	0	0	0	551	679	
13	0	0	0	0	552	679	
14	0	0	0	0	555	679	
15	0	0	0	0	556	679	
0	0	0	0	0	555	678	
1	0	0	0	0	556	679	
2	0	0	0	0	557	679	
3	0	0	0	0	558	679	
4	0	0	0	0	556	679	
5	0	0	0	0	556	679	
6	0	0	0	0	555	679	
7	0	0	0	0	555	679	
8	0	0	0	0	556	679	
9	0	0	0	0	552	679	
10	0	0	0	0	547	679	
11	0	0	0	0	541	679	
12	0	0	0	0	539	679	
13	0	0	0	0	540	679	
14	0	0	0	0	542	679	
15	0	0	0	0	546	679	
0	0	0	0	0	544	679	
1	0	0	0	0	540	679	
2	0	0	0	0	538	679	
3	0	0	0	0	538	679	
4	0	0	0	0	540	679	
5	0	0	0	0	542	679	
6	0	0	0	0	542	679	
7	0	0	0	0	541	679	
8	0	0	0	0	542	679	
9	0	0	0	0	543	679	
10	0	0	0	0	540	679	
11	0	0	0	0	538	679	
12	0	0	0	0	537	679	
13	0	0	0	0	538	679	
14	0	0	0	0	538	679	
15	0	0	0	0	538	679	
0	0	0	0	0	538	679	
1	0	0	0	0	536	679	
2	0	0	0	0	536	679	
3	0	0	0	0	536	679	
4	0	0	0	0	538	679	
5	0	0	0	0	541	679	
6	0	0	0	0	540	679	
7	0	0	0	0	534	679	
8	0	0	0	0	530	678	
9	0	0	0	0	528	679	
10	0	0	0	0	527	679	
11	0	0	0	0	526	678	
12	0	0	0	0	525	679	
13	0	0	0	0	528	679	
14	0	0	0	0	530	679	
15	0	0	0	0	531	679	
0	0	0	0	0	531	679	
1	0	0	0	0	533	679	
2	0	0	0	0	534	678	
3	0	0	0	0	537	679	
4	0	0	0	0	538	679	
5	0	0	0	0	542	679	
6	0	0	0	0	543	679	
7	0	0	0	0	542	679	
8	0	0	0	0	540	679	
9	0	0	0	0	536	679	
10	0	0	0	0	534	678	
11	0	0	0	0	531	679	
12	0	0	0	0	531	679	
13	0	0	0	0	530	679	
14	0	0	0	0	530	679	
15	0	0	0	0	535	679	
0	0	0	0	0	539	679	
1	0	0	0	0	543	679	
2	0	0	0	0	544	679	
3	0	0	0	0	543	679	
4	0	0	0	0	542	679	
5	0	0	0	0	539	679	
6	0	0	0	0	535	679	
7	0	0	0	0	530	679	
8	0	0	0	0	524	679	
9	0	0	0	0	521	679	
10	0	0	0	0	515	679	
11	0	0	0	0	510	679	
12	0	0	0	0	502	679	
13	0	0	0	0	497	679	
14	0	0	0	0	498	679	
15	0	0	0	0	499	679	
0	0	0	0	0	502	679	
1	0	0	0	0	503	679	
2	0	0	0	0	500	679	
3	0	0	0	0	498	679	
4	0	0	0	0	497	679	
5	0	0	0	0	499	679	
6	0	0	0	0	501	679	
7	0	0	0	0	502	679	
8	0	0	0	0	504	679	
9	0	0	0	0	503	679	
10	0	0	0	0	504	679	
11	0	0	0	0	507	679	
12	0	0	0	0	508	679	
13	0	0	0	0	508	679	
14	0	0	0	0	508	678	
15	0	0	0	0	510	679	
0	0	0	0	0	510	679	
1	0	0	0	0	508	679	
2	0	0	0	0	506	679	
3	0	0	0	0	504	679	
4	0	0	0	0	501	679	
5	0	0	0	0	501	679	
6	0	0	0	0	504	679	
7	0	0	0	0	507	679	
8	0	0	0	0	508	679	
9	0	0	0	0	510	679	
10	0	0	0	0	511	679	
11	0	0	0	0	512	679	
12	0	0	0	0	512	679	
13	0	0	0	0	513	679	
14	0	0	0	0	511	679	
15	0	0	0	0	509	679	
0	0	0	0	0	508	679	
1	0	0	0	0	509	678	
2	0	0	0	0	513	679	
3	0	0	0	0	517	679	
4	0	0	0	0	519	679	
5	0	0	0	0	523	679	
6	0	0	0	0	527	679	
7	0	0	0	0	533	679	
8	0	0	0	0	537	679	
9	0	0	0	0	540	679	
10	0	0	0	0	543	679	
11	0	0	0	0	545	679	
12	0	0	0	0	544	679	
13	0	0	0	0	543	679	
14	0	0	0	0	543	679	
15	0	0	0	0	544	679	
0	0	0	0	0	546	679	
1	0	0	0	0	547	679	
2	0	0	0	0	550	679	
3	0	0	0	0	553	679	
4	0	0	0	0	557	679	
5	0	0	0	0	562	679	
6	0	0	0	0	570	679	
7	0	0	0	0	576	679	
8	0	0	0	0	585	679	
9	0	0	0	0	594	679	
10	0	0	0	0	596	679	
11	0	0	0	0	591	679	
12	0	0	0	0	584	679	
13	0	0	0	0	572	679	
14	0	0	0	0	557	679	
15	0	0	0	0	540	679	
0	0	0	0	0	524	679	
1	0	0	0	0	511	679	
2	0	0	0	0	503	679	
3	0	0	0	0	499	679	
4	0	0	0	0	495	679	
5	0	0	0	0	494	679	
6	0	0	0	0	495	679	
7	0	0	0	0	496	679	
8	0	0	0	0	500	679	
9	0	0	0	0	505	679	
10	0	0	0	0	510	679	
11	0	0	0	0	513	679	
12	0	0	0	0	515	679	
13	0	0	0	0	517	679	
14	0	0	0	0	519	679	
15	0	0	0	0	518	679	
0	0	0	0	0	516	679	
1	0	0	0	0	512	679	
2	0	0	0	0	508	679	
3	0	0	0	0	505	679	
4	0	0	0	0	505	679	
5	0	0	0	0	507	679	
6	0	0	0	0	511	679	
7	0	0	0	0	516	679	
8	0	0	0	0	518	679	
9	0	0	0	0	518	679	
10	0	0	0	0	515	679	
11	0	0	0	0	511	679	
12	0	0	0	0	506	679	
13	0	0	0	0	504	679	
14	0	0	0	0	501	679	
15	0	0	0	0	496	679	
0	0	0	0	0	489	679	
1	0	0	0	0	483	679	
2	0	0	0	0	476	679	
3	0	0	0	0	470	679	
4	0	0	0	0	462	679	
5	0	0	0	0	455	679	
6	0	0	0	0	452	679	
7	0	0	0	0	449	679	
8	0	0	0	0	448	679	
9	0	0	0	0	448	679	
10	0	0	0	0	448	679	
11	0	0	0	0	447	679	
12	0	0	0	0	446	679	
13	0	0	0	0	447	679	
14	0	0	0	0	448	679	
15	0	0	0	0	449	679	
0	0	0	0	0	448	679	
1	0	0	0	0	448	679	
2	0	0	0	0	449	679	
3	0	0	0	0	453	679	
4	0	0	0	0	455	680	
5	0	0	0	0	456	679	
6	0	0	0	0	459	679	
7	0	0	0	0	462	679	
8	0	0	0	0	465	679	
9	0	0	0	0	467	679	
10	0	0	0	0	468	679	
11	0	0	0	0	465	679	
12	0	0	0	0	459	680	
13	0	0	0	0	454	679	
14	0	0	0	0	451	680	
15	0	0	0	0	450	679	
0	0	0	0	0	448	679	
1	0	0	0	0	445	679	
2	0	0	0	0	441	680	
3	0	0	0	0	438	680	
4	0	0	0	0	434	680	
5	0	0	0	0	434	679	
6	0	0	0	0	435	679	
7	0	0	0	0	435	679	
8	0	0	0	0	436	680	
9	0	0	0	0	438	680	
10	0	0	0	0	442	679	
11	0	0	0	0	445	680	
12	0	0	0	0	449	679	
13	0	0	0	0	451	680	
14	0	0	0	0	452	680	
15	0	0	0	0	451	680	
0	0	0	0	0	451	680	
1	0	0	0	0	452	679	
2	0	0	0	0	451	680	
3	0	0	0	0	452	680	
4	0	0	0	0	452	680	
5	0	0	0	0	455	680	
6	0	0	0	0	457	680	
7	0	0	0	0	458	680	
8	0	0	0	0	462	679	
9	0	0	0	0	464	680	
10	0	0	0	0	467	680	
11	0	0	0	0	471	680	
12	0	0	0	0	473	680	
13	0	0	0	0	477	680	
14	0	0	0	0	481	680	
15	0	0	0	0	478	680	
0	0	0	0	0	477	680	
1	0	0	0	0	472	680	
2	0	0	0	0	457	680	
3	0	0	0	0	445	680	
4	0	0	0	0	434	680	
5	0	0	0	0	418	680	
6	0	0	0	0	405	680	
7	0	0	0	0	393	680	
8	0	0	0	0	385	680	
9	0	0	0	0	377	680	
10	0	0	0	0	371	680	
11	0	0	0	0	372	681	
12	0	0	0	0	377	680	
13	0	0	0	0	384	680	
14	0	0	0	0	394	680	
15	0	0	0	0	405	680	
0	0	0	0	0	418	681	
1	0	0	0	0	438	681	
2	0	0	0	0	461	680	
3	0	0	0	0	485	681	
4	0	0	0	0	514	680	
5	0	0	0	0	548	681	
6	0	0	0	0	586	680	
7	0	0	0	0	624	681	
8	0	0	0	0	662	681	
9	0	0	0	0	693	680	
10	0	0	0	0	721	681	
11	0	0	0	0	745	681	
12	0	0	0	0	768	681	
13	0	0	0	0	791	681	
14	0	0	0	0	816	681	
15	0	0	0	0	842	681	
0	0	0	0	0	862	681	
1	0	0	0	0	873	681	
2	0	0	0	0	881	681	
3	0	0	0	0	885	681	
4	0	0	0	0	878	681	
5	0	0	0	0	859	681	
6	0	0	0	0	828	681	
7	0	0	0	0	787	681	
8	0	0	0	0	739	681	
9	0	0	0	0	685	681	
10	0	0	0	0	631	681	
11	0	0	0	0	579	681	
12	0	0	0	0	532	681	
13	0	0	0	0	491	681	
14	0	0	0	0	451	681	
15	0	0	0	0	414	681	
0	0	0	0	0	382	681	
1	0	0	0	0	355	681	
2	0	0	0	0	333	681	
3	0	0	0	0	313	681	
4	0	0	0	0	293	681	
5	0	0	0	0	274	681	
6	0	0	0	0	256	682	
7	0	0	0	0	241	681	
8	0	0	0	0	233	681	
9	0	0	0	0	226	681	
10	0	0	0	0	221	682	
11	0	0	0	0	221	682	
12	0	0	0	0	224	682	
13	0	0	0	0	226	682	
14	0	0	0	0	231	681	
15	0	0	0	0	239	682	
0	0	0	0	0	245	681	
1	0	0	0	0	250	681	
2	0	0	0	0	253	682	
3	0	0	0	0	259	681	
4	0	0	0	0	267	682	
5	0	0	0	0	274	682	
6	0	0	0	0	280	681	
7	0	0	0	0	286	682	
8	0	0	0	0	294	682	
9	0	0	0	0	300	682	
10	0	0	0	0	305	682	
11	0	0	0	0	307	682	
12	0	0	0	0	308	682	
13	0	0	0	0	311	682	
14	0	0	0	0	314	682	
15	0	0	0	0	318	682	
0	0	0	0	0	322	682	
1	0	0	0	0	327	683	
2	0	0	0	0	328	682	
3	0	0	0	0	328	683	
4	0	0	0	0	327	682	
5	0	0	0	0	327	682	
6	0	0	0	0	326	683	
7	0	0	0	0	326	682	
8	0	0	0	0	329	682	
9	0	0	0	0	332	683	
10	0	0	0	0	335	682	
11	0	0	0	0	339	683	
12	0	0	0	0	340	682	
13	0	0	0	0	338	682	
14	0	0	0	0	333	683	
15	0	0	0	0	329	683	
0	0	0	0	0	330	683	
1	0	0	0	0	333	683	
2	0	0	0	0	337	683	
3	0	0	0	0	340	682	
4	0	0	0	0	341	683	
5	0	0	0	0	343	683	
6	0	0	0	0	343	683	
7	0	0	0	0	339	683	
8	0	0	0	0	339	683	
9	0	0	0	0	340	683	
10	0	0	0	0	343	683	
11	0	0	0	0	347	683	
12	0	0	0	0	350	683	
13	0	0	0	0	354	683	
14	0	0	0	0	359	683	
15	0	0	0	0	361	683	
0	0	0	0	0	364	683	
1	0	0	0	0	364	683	
2	0	0	0	0	366	683	
3	0	0	0	0	366	683	
4	0	0	0	0	367	684	
5	0	0	0	0	368	683	
6	0	0	0	0	368	683	
7	0	0	0	0	369	683	
8	0	0	0	0	371	683	
9	0	0	0	0	373	683	
10	0	0	0	0	372	683	
11	0	0	0	0	371	683	
12	0	0	0	0	371	683	
13	0	0	0	0	370	684	
14	0	0	0	0	371	684	
15	0	0	0	0	370	684	
0	0	0	0	0	371	684	
1	0	0	0	0	375	684	
2	0	0	0	0	376	683	
3	0	0	0	0	376	684	
4	0	0	0	0	373	684	
5	0	0	0	0	370	684	
6	0	0	0	0	365	684	
7	0	0	0	0	358	684	
8	0	0	0	0	350	684	
9	0	0	0	0	345	684	
10	0	0	0	0	342	684	
11	0	0	0	0	341	684	
12	0	0	0	0	343	684	
13	0	0	0	0	345	684	
14	0	0	0	0	348	684	
15	0	0	0	0	351	684	
0	0	0	0	0	351	684	
1	0	0	0	0	350	684	
2	0	0	0	0	350	684	
3	0	0	0	0	351	684	
4	0	0	0	0	352	684	
5	0	0	0	0	355	684	
6	0	0	0	0	358	684	
7	0	0	0	0	357	685	
8	0	0	0	0	356	684	
9	0	0	0	0	357	684	
10	0	0	0	0	358	684	
11	0	0	0	0	358	684	
12	0	0	0	0	356	684	
13	0	0	0	0	356	684	
14	0	0	0	0	357	684	
15	0	0	0	0	359	685	
0	0	0	0	0	361	684	
1	0	0	0	0	364	685	
2	0	0	0	0	368	685	
3	0	0	0	0	368	685	
4	0	0	0	0	368	685	
5	0	0	0	0	370	684	
6	0	0	0	0	370	685	
7	0	0	0	0	368	685	
8	0	0	0	0	368	685	
9	0	0	0	0	369	685	
10	0	0	0	0	366	684	
11	0	0	0	0	360	685	
12	0	0	0	0	354	685	
13	0	0	0	0	351	685	
14	0	0	0	0	349	685	
15	0	0	0	0	346	685	
0	0	0	0	0	345	685	
1	0	0	0	0	344	685	
2	0	0	0	0	344	685	
3	0	0	0	0	345	685	
4	0	0	0	0	347	685	
5	0	0	0	0	349	686	
6	0	0	0	0	349	685	
7	0	0	0	0	346	686	
8	0	0	0	0	347	685	
9	0	0	0	0	343	685	
10	0	0	0	0	340	686	
11	0	0	0	0	338	685	
12	0	0	0	0	339	685	
13	0	0	0	0	343	686	
14	0	0	0	0	345	686	
15	0	0	0	0	347	686	
0	0	0	0	0	348	686	
1	0	0	0	0	351	686	
2	0	0	0	0	354	686	
3	0	0	0	0	357	686	
4	0	0	0	0	359	686	
5	0	0	0	0	361	686	
6	0	0	0	0	364	686	
7	0	0	0	0	367	686	
8	0	0	0	0	371	686	
9	0	0	0	0	375	686	
10	0	0	0	0	374	686	
11	0	0	0	0	372	686	
12	0	0	0	0	369	686	
13	0	0	0	0	368	686	
14	0	0	0	0	367	686	
15	0	0	0	0	369	686	
0	0	0	0	0	370	686	
1	0	0	0	0	372	686	
2	0	0	0	0	373	687	
3	0	0	0	0	374	687	
4	0	0	0	0	373	686	
5	0	0	0	0	375	687	
6	0	0	0	0	376	687	
7	0	0	0	0	373	687	
8	0	0	0	0	373	686	
9	0	0	0	0	374	687	
10	0	0	0	0	375	687	
11	0	0	0	0	376	687	
12	0	0	0	0	376	687	
13	0	0	0	0	377	687	
14	0	0	0	0	378	687	
15	0	0	0	0	380	687	
0	0	0	0	0	381	687	
1	0	0	0	0	380	687	
2	0	0	0	0	381	687	
3	0	0	0	0	384	687	
4	0	0	0	0	389	687	
5	0	0	0	0	394	687	
6	0	0	0	0	396	687	
7	0	0	0	0	398	687	
8	0	0	0	0	399	687	
9	0	0	0	0	399	687	
10	0	0	0	0	399	687	
11	0	0	0	0	398	687	
12	0	0	0	0	398	688	
13	0	0	0	0	396	688	
14	0	0	0	0	389	688	
15	0	0	0	0	385	688	
0	0	0	0	0	383	688	
1	0	0	0	0	378	688	
2	0	0	0	0	371	688	
3	0	0	0	0	363	688	
4	0	0	0	0	355	688	
5	0	0	0	0	352	688	
6	0	0	0	0	351	688	
7	0	0	0	0	352	688	
8	0	0	0	0	352	688	
9	0	0	0	0	352	688	
10	0	0	0	0	348	688	
11	0	0	0	0	344	688	
12	0	0	0	0	340	688	
13	0	0	0	0	336	688	
14	0	0	0	0	333	688	
15	0	0	0	0	332	688	
0	0	0	0	0	330	688	
1	0	0	0	0	330	689	
2	0	0	0	0	329	688	
3	0	0	0	0	328	689	
4	0	0	0	0	332	688	
5	0	0	0	0	338	688	
6	0	0	0	0	341	689	
7	0	0	0	0	343	689	
8	0	0	0	0	344	689	
9	0	0	0	0	341	689	
10	0	0	0	0	337	688	
11	0	0	0	0	335	689	
12	0	0	0	0	332	689	
13	0	0	0	0	328	689	
14	0	0	0	0	325	689	
15	0	0	0	0	325	689	
0	0	0	0	0	325	689	
1	0	0	0	0	326	689	
2	0	0	0	0	325	689	
3	0	0	0	0	324	689	
4	0	0	0	0	322	689	
5	0	0	0	0	324	689	
6	0	0	0	0	327	689	
7	0	0	0	0	328	689	
8	0	0	0	0	331	689	
9	0	0	0	0	332	689	
10	0	0	0	0	334	689	
11	0	0	0	0	337	689	
12	0	0	0	0	339	690	
13	0	0	0	0	338	689	
14	0	0	0	0	334	690	
15	0	0	0	0	329	690	
0	0	0	0	0	326	690	
1	0	0	0	0	326	690	
2	0	0	0	0	325	690	
3	0	0	0	0	326	690	
4	0	0	0	0	324	690	
5	0	0	0	0	325	690	
6	0	0	0	0	323	690	
7	0	0	0	0	322	690	
8	0	0	0	0	321	690	
9	0	0	0	0	322	690	
10	0	0	0	0	321	690	
11	0	0	0	0	318	690	
12	0	0	0	0	317	690	
13	0	0	0	0	313	690	
14	0	0	0	0	309	690	
15	0	0	0	0	305	690	
0	0	0	0	0	302	690	
1	0	0	0	0	298	691	
2	0	0	0	0	295	691	
3	0	0	0	0	296	691	
4	0	0	0	0	297	691	
5	0	0	0	0	297	691	
6	0	0	0	0	297	691	
7	0	0	0	0	297	691	
8	0	0	0	0	296	691	
9	0	0	0	0	298	691	
10	0	0	0	0	298	691	
11	0	0	0	0	297	691	
12	0	0	0	0	295	691	
13	0	0	0	0	291	691	
14	0	0	0	0	289	691	
15	0	0	0	0	287	691	
0	0	0	0	0	284	691	
1	0	0	0	0	278	691	
2	0	0	0	0	278	691	
3	0	0	0	0	279	691	
4	0	0	0	0	280	691	
5	0	0	0	0	280	691	
6	0	0	0	0	276	691	
7	0	0	0	0	273	692	
8	0	0	0	0	271	691	
9	0	0	0	0	273	691	
10	0	0	0	0	273	691	
11	0	0	0	0	273	691	
12	0	0	0	0	271	691	
13	0	0	0	0	270	691	
14	0	0	0	0	268	692	
15	0	0	0	0	268	691	
0	0	0	0	0	267	692	
1	0	0	0	0	264	692	
2	0	0	0	0	263	692	
3	0	0	0	0	262	692	
4	0	0	0	0	265	692	
5	0	0	0	0	268	692	
6	0	0	0	0	270	692	
7	0	0	0	0	273	692	
8	0	0	0	0	276	692	
9	0	0	0	0	281	692	
10	0	0	0	0	287	692	
11	0	0	0	0	288	692	
12	0	0	0	0	290	692	
13	0	0	0	0	289	692	
14	0	0	0	0	286	692	
15	0	0	0	0	282	692	
0	0	0	0	0	275	692	
1	0	0	0	0	269	692	
2	0	0	0	0	263	692	
3	0	0	0	0	260	692	
4	0	0	0	0	259	692	
5	0	0	0	0	257	693	
6	0	0	0	0	258	692	
7	0	0	0	0	259	692	
8	0	0	0	0	259	692	
9	0	0	0	0	261	693	
10	0	0	0	0	265	693	
11	0	0	0	0	271	693	
12	0	0	0	0	276	693	
13	0	0	0	0	278	693	
14	0	0	0	0	277	693	
15	0	0	0	0	275	693	
0	0	0	0	0	272	693	
1	0	0	0	0	269	693	
2	0	0	0	0	268	693	
3	0	0	0	0	268	693	
4	0	0	0	0	267	693	
5	0	0	0	0	268	693	
6	0	0	0	0	270	693	
7	0	0	0	0	272	693	
8	0	0	0	0	271	694	
9	0	0	0	0	273	693	
10	0	0	0	0	278	693	
11	0	0	0	0	283	694	
12	0	0	0	0	288	693	
13	0	0	0	0	289	693	
14	0	0	0	0	289	694	
15	0	0	0	0	289	693	
0	0	0	0	0	287	694	
1	0	0	0	0	284	694	
2	0	0	0	0	279	693	
3	0	0	0	0	273	694	
4	0	0	0	0	268	694	
5	0	0	0	0	264	694	
6	0	0	0	0	260	694	
7	0	0	0	0	258	694	
8	0	0	0	0	256	694	
9	0	0	0	0	253	694	
10	0	0	0	0	252	694	
11	0	0	0	0	252	694	
12	0	0	0	0	255	694	
13	0	0	0	0	255	694	
14	0	0	0	0	257	695	
15	0	0	0	0	257	694	
0	0	0	0	0	256	694	
1	0	0	0	0	255	694	
2	0	0	0	0	250	694	
3	0	0	0	0	244	694	
4	0	0	0	0	239	695	
5	0	0	0	0	238	694	
6	0	0	0	0	240	695	
7	0	0	0	0	242	694	
8	0	0	0	0	241	694	
9	0	0	0	0	239	694	
10	0	0	0	0	241	695	
11	0	0	0	0	244	695	
12	0	0	0	0	248	695	
13	0	0	0	0	256	695	
14	0	0	0	0	264	695	
15	0	0	0	0	273	695	
0	0	0	0	0	281	695	
1	0	0	0	0	286	695	
2	0	0	0	0	288	695	
3	0	0	0	0	290	695	
4	0	0	0	0	287	695	
5	0	0	0	0	283	695	
6	0	0	0	0	275	695	
7	0	0	0	0	267	695	
8	0	0	0	0	257	695	
9	0	0	0	0	250	695	
10	0	0	0	0	243	696	
11	0	0	0	0	241	695	
12	0	0	0	0	241	695	
13	0	0	0	0	242	695	
14	0	0	0	0	243	696	
15	0	0	0	0	242	695	
0	0	0	0	0	242	695	
1	0	0	0	0	245	695	
2	0	0	0	0	246	695	
3	0	0	0	0	248	696	
4	0	0	0	0	248	696	
5	0	0	0	0	248	696	
6	0	0	0	0	251	696	
7	0	0	0	0	250	695	
8	0	0	0	0	249	696	
9	0	0	0	0	248	696	
10	0	0	0	0	248	696	
11	0	0	0	0	251	696	
12	0	0	0	0	253	696	
13	0	0	0	0	254	696	
14	0	0	0	0	252	696	
15	0	0	0	0	248	696	
0	0	0	0	0	243	696	
1	0	0	0	0	240	696	
2	0	0	0	0	239	696	
3	0	0	0	0	239	696	
4	0	0	0	0	242	696	
5	0	0	0	0	245	696	
6	0	0	0	0	248	696	
7	0	0	0	0	249	696	
8	0	0	0	0	248	696	
9	0	0	0	0	246	696	
10	0	0	0	0	243	696	
11	0	0	0	0	243	696	
12	0	0	0	0	246	696	
13	0	0	0	0	246	696	
14	0	0	0	0	245	696	
15	0	0	0	0	243	696	
0	0	0	0	0	237	696	
1	0	0	0	0	228	696	
2	0	0	0	0	223	696	
3	0	0	0	0	221	696	
4	0	0	0	0	220	696	
5	0	0	0	0	217	696	
6	0	0	0	0	216	696	
7	0	0	0	0	216	696	
8	0	0	0	0	220	696	
9	0	0	0	0	224	696	
10	0	0	0	0	229	696	
11	0	0	0	0	233	696	
12	0	0	0	0	237	697	
13	0	0	0	0	243	696	
14	0	0	0	0	246	696	
15	0	0	0	0	247	696	
0	0	0	0	0	248	697	
1	0	0	0	0	246	696	
2	0	0	0	0	243	697	
3	0	0	0	0	243	696	
4	0	0	0	0	241	696	
5	0	0	0	0	239	696	
6	0	0	0	0	236	697	
7	0	0	0	0	233	697	
8	0	0	0	0	230	697	
9	0	0	0	0	230	696	
10	0	0	0	0	231	696	
11	0	0	0	0	233	697	
12	0	0	0	0	238	696	
13	0	0	0	0	243	697	
14	0	0	0	0	248	697	
15	0	0	0	0	253	696	
0	0	0	0	0	255	697	
1	0	0	0	0	255	697	
2	0	0	0	0	254	697	
3	0	0	0	0	252	697	
4	0	0	0	0	247	697	
5	0	0	0	0	237	697	
6	0	0	0	0	230	697	
7	0	0	0	0	220	697	
8	0	0	0	0	213	697	
9	0	0	0	0	206	697	
10	0	0	0	0	201	697	
11	0	0	0	0	199	697	
12	0	0	0	0	198	697	
13	0	0	0	0	197	697	
14	0	0	0	0	195	697	
15	0	0	0	0	196	697	
0	0	0	0	0	196	697	
1	0	0	0	0	196	697	
2	0	0	0	0	196	697	
3	0	0	0	0	197	697	
4	0	0	0	0	196	697	
5	0	0	0	0	195	697	
6	0	0	0	0	197	697	
7	0	0	0	0	197	698	
8	0	0	0	0	198	697	
9	0	0	0	0	199	698	
10	0	0	0	0	201	697	
11	0	0	0	0	206	697	
12	0	0	0	0	212	697	
13	0	0	0	0	218	698	
14	0	0	0	0	223	697	
15	0	0	0	0	226	698	
0	0	0	0	0	231	697	
1	0	0	0	0	235	697	
2	0	0	0	0	234	698	
3	0	0	0	0	233	698	
4	0	0	0	0	234	698	
5	0	0	0	0	237	698	
6	0	0	0	0	240	698	
7	0	0	0	0	243	698	
8	0	0	0	0	246	698	
9	0	0	0	0	249	698	
10	0	0	0	0	250	698	
11	0	0	0	0	250	698	
12	0	0	0	0	249	698	
13	0	0	0	0	248	698	
14	0	0	0	0	246	698	
15	0	0	0	0	244	698	
0	0	0	0	0	243	698	
1	0	0	0	0	243	699	
2	0	0	0	0	240	698	
3	0	0	0	0	236	698	
4	0	0	0	0	236	699	
5	0	0	0	0	240	698	
6	0	0	0	0	249	698	
7	0	0	0	0	256	699	
8	0	0	0	0	263	698	
9	0	0	0	0	270	698	
10	0	0	0	0	275	698	
11	0	0	0	0	278	699	
12	0	0	0	0	278	699	
13	0	0	0	0	278	699	
14	0	0	0	0	278	698	
15	0	0	0	0	278	698	
0	0	0	0	0	278	698	
1	0	0	0	0	279	699	
2	0	0	0	0	276	699	
3	0	0	0	0	273	699	
4	0	0	0	0	271	699	
5	0	0	0	0	269	699	
6	0	0	0	0	267	699	
7	0	0	0	0	263	699	
8	0	0	0	0	262	699	
9	0	0	0	0	260	699	
10	0	0	0	0	257	699	
11	0	0	0	0	251	699	
12	0	0	0	0	251	699	
13	0	0	0	0	252	699	
14	0	0	0	0	251	699	
15	0	0	0	0	249	699	
0	0	0	0	0	248	699	
1	0	0	0	0	250	699	
2	0	0	0	0	253	699	
3	0	0	0	0	256	699	
4	0	0	0	0	259	699	
5	0	0	0	0	259	699	
6	0	0	0	0	255	699	
7	0	0	0	0	251	699	
8	0	0	0	0	247	699	
9	0	0	0	0	243	700	
10	0	0	0	0	237	700	
11	0	0	0	0	228	699	
12	0	0	0	0	222	699	
13	0	0	0	0	218	699	
14	0	0	0	0	212	699	
15	0	0	0	0	207	700	
0	0	0	0	0	203	700	
1	0	0	0	0	199	699	
2	0	0	0	0	197	699	
3	0	0	0	0	194	699	
4	0	0	0	0	192	700	
5	0	0	0	0	193	699	
6	0	0	0	0	193	700	
7	0	0	0	0	192	699	
8	0	0	0	0	192	699	
9	0	0	0	0	191	699	
10	0	0	0	0	190	700	
11	0	0	0	0	187	699	
12	0	0	0	0	185	699	
13	0	0	0	0	184	700	
14	0	0	0	0	184	699	
15	0	0	0	0	184	699	
0	0	0	0	0	182	700	
1	0	0	0	0	178	699	
2	0	0	0	0	176	699	
3	0	0	0	0	176	700	
4	0	0	0	0	179	699	
5	0	0	0	0	179	699	
6	0	0	0	0	181	700	
7	0	0	0	0	184	700	
8	0	0	0	0	185	700	
9	0	0	0	0	188	700	
10	0	0	0	0	191	700	
11	0	0	0	0	191	700	
12	0	0	0	0	192	699	
13	0	0	0	0	193	700	
14	0	0	0	0	192	700	
15	0	0	0	0	191	700	
0	0	0	0	0	188	700	
1	0	0	0	0	187	700	
2	0	0	0	0	188	699	
3	0	0	0	0	188	700	
4	0	0	0	0	190	700	
5	0	0	0	0	188	700	
6	0	0	0	0	186	700	
7	0	0	0	0	184	700	
8	0	0	0	0	182	700	
9	0	0	0	0	184	700	
10	0	0	0	0	187	700	
11	0	0	0	0	188	700	
12	0	0	0	0	187	700	
13	0	0	0	0	188	700	
14	0	0	0	0	190	700	
15	0	0	0	0	193	700	
0	0	0	0	0	194	700	
1	0	0	0	0	193	700	
2	0	0	0	0	190	700	
3	0	0	0	0	188	700	
4	0	0	0	0	187	700	
5	0	0	0	0	189	700	
6	0	0	0	0	191	700	
7	0	0	0	0	192	700	
8	0	0	0	0	192	700	
9	0	0	0	0	193	700	
10	0	0	0	0	195	700	
11	0	0	0	0	195	700	
12	0	0	0	0	194	700	
13	0	0	0	0	194	700	
14	0	0	0	0	193	700	
15	0	0	0	0	193	700	
0	0	0	0	0	192	700	
1	0	0	0	0	191	700	
2	0	0	0	0	190	700	
3	0	0	0	0	186	700	
4	0	0	0	0	183	700	
5	0	0	0	0	184	700	
6	0	0	0	0	187	700	
7	0	0	0	0	194	700	
8	0	0	0	0	202	700	
9	0	0	0	0	210	700	
10	0	0	0	0	220	700	
11	0	0	0	0	232	700	
12	0	0	0	0	244	700	
13	0	0	0	0	255	700	
14	0	0	0	0	267	700	
15	0	0	0	0	286	700	
0	0	0	0	0	311	700	
1	0	0	0	0	338	700	
2	0	0	0	0	372	700	
3	0	0	0	0	406	700	
4	0	0	0	0	445	700	
5	0	0	0	0	485	700	
6	0	0	0	0	519	700	
7	0	0	0	0	549	700	
8	0	0	0	0	579	700	
9	0	0	0	0	611	700	
10	0	0	0	0	642	700	
11	0	0	0	0	670	700	
12	0	0	0	0	691	700	
13	0	0	0	0	708	700	
14	0	0	0	0	719	700	
15	0	0	0	0	726	700	
0	0	0	0	0	727	700	
1	0	0	0	0	717	700	
2	0	0	0	0	700	700	
3	0	0	0	0	671	700	
